"Wavelength, nm",Intensity
136.44237175216523,7.285959179720159e-26
136.53333333333333,9.584798792765257e-26
136.62441627751835,9.500384190569448e-26
136.71562082777035,1.0842756892039238e-25
136.80694722778892,1.310661738350995e-25
136.89839572192514,1.4463759930007724e-25
136.98996655518394,1.9403968322404507e-25
137.08165997322624,2.0097163069312157e-25
137.17347622237108,5.589815534310489e-26
137.26541554959786,1.6025731453930609e-24
137.35747820254863,3.2338595412959564e-23
137.4496644295302,2.8241369495279585e-22
137.54197447951645,1.735444267817592e-21
137.63440860215053,7.212992590066823e-21
137.72696704774717,2.003592244390962e-20
137.81965006729476,4.2134958331502684e-20
137.9124579124579,7.807290620797903e-20
138.0053908355795,1.4259477978481705e-19
138.09844908968307,2.5738538395670947e-19
138.19163292847506,5.740033943866333e-19
138.28494260634707,2.4792309305910704e-18
138.37837837837836,1.1858289971370843e-17
138.47194050033806,4.548853275953722e-17
138.5656292286874,1.4051499090478547e-16
138.65944482058225,3.59108037892229e-16
138.75338753387533,7.791904322571986e-16
138.84745762711862,1.4551977837099107e-15
138.94165535956583,2.3409252734419757e-15
139.03598099117448,3.2754072646207668e-15
139.1304347826087,4.1089165960720465e-15
139.22501699524133,4.7656017544941805e-15
139.31972789115645,5.110888297289846e-15
139.4145677331518,4.9395268801670435e-15
139.50953678474113,4.2558032230083365e-15
139.60463531015677,3.3591777018613673e-15
139.69986357435198,2.5673024396447034e-15
139.79522184300342,2.1257851782993266e-15
139.89071038251367,2.3402609756920212e-15
139.98632946001365,3.783742497383089e-15
140.08207934336525,7.656575434354169e-15
140.17796030116358,1.593157161147344e-14
140.27397260273972,3.0537123823073016e-14
140.37011651816314,5.120482402911679e-14
140.46639231824417,7.41593661590307e-14
140.56280027453673,9.442604374836082e-14
140.65934065934067,1.0890478292277074e-13
140.75601374570448,1.1520388072700968e-13
140.85281980742778,1.0893860614596172e-13
140.949759119064,8.690145648820817e-14
141.04683195592284,5.501906875830612e-14
141.14403859407307,3.2849046822191403e-14
141.24137931034483,5.51619054145742e-14
141.33885438233264,1.7018746985487581e-13
141.4364640883978,4.2066221635588643e-13
141.53420870767104,8.182467080132901e-13
141.6320885200553,1.3429572570709473e-12
141.73010380622836,1.9613349678398407e-12
141.8282548476454,2.66020079233649e-12
141.92654192654192,3.519952270410571e-12
142.0249653259362,4.785904542146261e-12
142.1235253296322,6.855422440464228e-12
142.22222222222223,1.0189712163017145e-11
142.32105628908963,1.5207854738759332e-11
142.42002781641168,2.2127914499242345e-11
142.51913709116212,3.0732738708872056e-11
142.6183844011142,4.0280732731020276e-11
142.7177700348432,4.9846346888835526e-11
142.81729428172943,5.892104853057117e-11
142.91695743196092,6.77311769335921e-11
143.0167597765363,7.718870029347574e-11
143.11670160726763,8.876818240731494e-11
143.21678321678323,1.0421985978594471e-10
143.31700489853043,1.2540923817216746e-10
143.4173669467787,1.5530725920871492e-10
143.5178696566223,2.002354586208917e-10
143.61851332398317,2.725701583841535e-10
143.71929824561403,3.93972572922906e-10
143.8202247191011,5.996627047935054e-10
143.92129304286718,9.432472398495186e-10
144.0225035161744,1.5015498840411964e-09
144.12385643912737,2.3798597966980286e-09
144.22535211267606,3.7171547508494748e-09
144.32699083861874,5.686978983357597e-09
144.42877291960508,8.491230372695093e-09
144.530698659139,1.23607545760209e-08
144.6327683615819,1.755805323343491e-08
144.73498233215545,2.43240636774428e-08
144.83734087694484,3.2808867326202056e-08
144.9398443029016,4.311679679615062e-08
145.04249291784703,5.527053959558122e-08
145.14528703047483,6.891053849286395e-08
145.24822695035462,8.332033920696961e-08
145.35131298793468,9.779288198839942e-08
145.45454545454544,1.111205312193228e-07
145.55792466240226,1.2112313341809713e-07
145.66145092460883,1.260051514504177e-07
145.76512455516016,1.246218519897721e-07
145.86894586894587,1.1480847487934898e-07
145.9729151817534,9.552303976996839e-08
146.07703281027102,6.964146917655367e-08
146.18129907209135,4.1199775869187964e-08
146.28571428571428,1.7364531548300864e-08
146.39027877055037,1.4078678422957997e-08
146.49499284692416,5.1539847853046614e-08
146.59985683607732,1.5777564250135848e-07
146.7048710601719,3.775318246504732e-07
146.8100358422939,7.534177562244978e-07
146.91535150645623,1.3333777458023203e-06
147.0208183776023,2.20459091300488e-06
147.1264367816092,3.4287114192472785e-06
147.23220704529115,5.024639357304959e-06
147.33812949640287,7.116955976372272e-06
147.4442044636429,9.80610631419121e-06
147.55043227665706,1.2914811501621216e-05
147.6568132660418,1.6393740000545135e-05
147.76334776334778,2.0470547395829496e-05
147.87003610108303,2.474117229563704e-05
147.97687861271675,2.8501663590215052e-05
148.08387563268258,3.229775141568459e-05
148.19102749638205,3.6631519398997846e-05
148.29833454018825,3.983584430080258e-05
148.40579710144928,4.0555671186274264e-05
148.51341551849166,3.997379704844444e-05
148.6211901306241,3.852881137162317e-05
148.72912127814087,3.498961316858461e-05
148.8372093023256,3.0376218003325365e-05
148.94545454545454,2.707648301657108e-05
149.0538573508006,2.5747324935472225e-05
149.16241806263656,2.8681530582988354e-05
149.27113702623907,4.1818278272443566e-05
149.38001458789202,7.09886792335293e-05
149.4890510948905,0.0001228066978231662
149.59824689554418,0.00020792058168838328
149.70760233918128,0.00033778780501011075
149.81711777615214,0.0005232311049138997
149.9267935578331,0.0007779492493786561
150.03663003663004,0.0011177637590606261
150.1466275659824,0.0015588118687211079
150.25678650036684,0.0021147738602598836
150.36710719530103,0.0027871372450067266
150.47759000734754,0.0035698014152313368
150.58823529411762,0.004470455218960348
150.69904341427517,0.005497046150619494
150.8100147275405,0.006616647376969097
150.92114959469419,0.007769141105300585
151.03244837758112,0.008916359137674482
151.1439114391144,0.010029442993363804
151.25553914327915,0.011050710435182009
151.3673318551367,0.011917575285503695
151.47928994082838,0.012590052732827128
151.59141376757958,0.013029127833294307
151.7037037037037,0.013208250043547178
151.81616011860638,0.013152268012821787
151.92878338278933,0.012893206944442523
152.04157386785448,0.012419558775614585
152.15453194650817,0.011765931571291667
152.26765799256503,0.011089894265536356
152.38095238095235,0.010520800294983751
152.4944154877141,0.009992318243154647
152.6080476900149,0.009406732896578469
152.72184936614468,0.008920676972718557
152.8358208955224,0.00878335323581836
152.9499626587005,0.008835176082387847
153.0642750373692,0.008581014871416616
153.1787584143605,0.008010510117768032
153.29341317365268,0.007775285586872545
153.40823970037454,0.007998407186955778
153.5232383808096,0.00768119100983363
153.6384096024006,0.00635758515698685
153.75375375375376,0.005415899710947538
153.86927122464311,0.00599025747424606
153.98496240601503,0.006524128366586724
154.10082768999246,0.005240333963514279
154.2168674698795,0.004163431255791355
154.33308214016577,0.0063826929952145025
154.4494720965309,0.00960400202893664
154.56603773584905,0.00871170965892767
154.68277945619334,0.00578738792752351
154.79969765684052,0.008803424907361704
154.91679273827532,0.016781078720825703
155.0340651021953,0.01782578147130896
155.15151515151516,0.009739126929857308
155.2691432903715,0.008491354540074735
155.38694992412746,0.02214444424392481
155.50493545937738,0.03182997216220087
155.62310030395136,0.020880091727154423
155.74144486692012,0.008173908528373897
155.8599695585997,0.020802506959680115
155.97867479055597,0.044356049689299785
156.09756097560975,0.04150458874094926
156.21662852784135,0.016554075456209058
156.33587786259542,0.0130174351207552
156.45530939648586,0.04051127281139156
156.5749235474006,0.05615157323154029
156.69472073450652,0.03597261708946901
156.8147013782542,0.014234438599961019
156.93486590038313,0.024972834261840417
157.05521472392638,0.04855856830264501
157.17574827321565,0.048896040144997335
157.29646697388634,0.029807845880217947
157.4173712528824,0.020928064887904444
157.53846153846155,0.030105688915027018
157.65973826020013,0.0397771570755227
157.78120184899845,0.03814398972276604
157.9028527370856,0.030604596970819718
158.02469135802468,0.025744886883737425
158.14671814671814,0.025770629486820917
158.26893353941267,0.02869904180229587
158.39133797370457,0.03088491497256675
158.5139318885449,0.028949193794701365
158.63671572424477,0.023768975060772093
158.7596899224806,0.020236926093099745
158.88285492629947,0.020904826129808766
159.0062111801242,0.022852024957251985
159.12975912975912,0.022241180723764357
159.25349922239502,0.019111427717725588
159.37743190661476,0.016252046181914736
159.50155763239874,0.015361881620543796
159.62587685113016,0.01578434196101093
159.7503900156006,0.016009275623154278
159.87509758001562,0.015247902919004607
160.0,0.013866557687294428
160.12509773260362,0.012876990382202394
160.2503912363067,0.012918036409918713
160.37588097102582,0.013660120099935376
160.5015673981191,0.014288150155063878
160.62745098039213,0.014419688502676508
160.7535321821036,0.01441357141425129
160.87981146897093,0.014846007091462799
161.0062893081761,0.01586602578635664
161.13296616837135,0.01718034518112337
161.25984251968504,0.018457649169006222
161.38691883372735,0.019551644404809214
161.51419558359618,0.020539602046673863
161.64167324388316,0.021661799105743215
161.7693522906793,0.023060079480034662
161.89723320158103,0.02461416005610829
162.0253164556962,0.02613253048289268
162.15360253365006,0.027529802347541474
162.28209191759112,0.028771754305921785
162.41078509119745,0.029874681521366474
162.53968253968253,0.030930552545885677
162.66878474980143,0.03195118302787
162.79809220985692,0.03283270139791349
162.92760540970565,0.03352866968537753
163.05732484076432,0.03405000700857424
163.18725099601593,0.034383627499764716
163.31738437001593,0.03453130902203547
163.44772545889865,0.03449502653397838
163.57827476038338,0.03427159184697856
163.709032773781,0.033873782703389206
163.84,0.033268022994418306
163.97117694155327,0.03245147820741788
164.1025641025641,0.031508915078644194
164.23416198877305,0.030452214656145928
164.3659711075441,0.02928526040001956
164.49799196787149,0.02810766392258044
164.63022508038586,0.02691754018124364
164.76267095736122,0.025658372868036055
164.89533011272144,0.024379422478121124
165.02820306204674,0.023081596754142304
165.16129032258064,0.021744650267059074
165.29459241323647,0.020418029784346342
165.4281098546042,0.01906431276181374
165.56184316895713,0.017679817946950623
165.6957928802589,0.016386860321046803
165.82995951417004,0.015183065202247499
165.9643435980551,0.01403829318745488
166.09894566098947,0.013050949092387422
166.23376623376623,0.012238668550146064
166.36880584890332,0.011557257932856276
166.5040650406504,0.011028138717529105
166.63954434499593,0.010632023691726717
166.77524429967426,0.010317273299690828
166.9111654441728,0.010077181272318084
167.047308319739,0.009885888983859815
167.18367346938777,0.009678390194185765
167.3202614379085,0.009420977944196706
167.45707277187245,0.009117049340420952
167.59410801963992,0.008753328879102365
167.7313677313677,0.008312124463507091
167.86885245901638,0.007801720053786192
168.00656275635768,0.007227154224697025
168.14449917898193,0.0065969643582567605
168.28266228430567,0.005943075697760064
168.42105263157896,0.00528308914219243
168.559670781893,0.00462041595821676
168.6985172981878,0.00397708366748244
168.83759274525966,0.003377432230475745
168.97689768976898,0.0028281884036741155
169.11643270024774,0.002329950379891026
169.25619834710741,0.001889331415316532
169.39619520264682,0.001513837204768421
169.53642384105962,0.0011987031132048903
169.67688483844242,0.0009332538832095378
169.81757877280262,0.0007154519517842046
169.95850622406635,0.0005435616793210617
170.09966777408638,0.00040894860930318973
170.24106400665005,0.0003051405940750647
170.3826955074875,0.00022686373162826792
170.52456286427974,0.0001665214280384666
170.66666666666666,0.0001213309441824872
170.8090075062552,9.087505780899666e-05
170.9515859766277,6.957781244447277e-05
171.09440267335003,5.247413524055932e-05
171.23745819397996,3.99762285763764e-05
171.3807531380753,3.223801180677259e-05
171.52428810720266,2.7088046678957492e-05
171.66806370494552,2.3160459068580837e-05
171.81208053691276,1.984599744149821e-05
171.95633921074725,1.6850818533746625e-05
172.10084033613444,1.4671532464029017e-05
172.24558452481077,1.2907808311852576e-05
172.3905723905724,1.0896568543575063e-05
172.5358045492839,9.545859357186713e-06
172.681281618887,8.80570110555191e-06
172.82700421940928,7.488703177250027e-06
172.97297297297297,6.328954191303142e-06
173.11918850380385,5.942429881879036e-06
173.26565143824024,5.150409428639617e-06
173.41236240474177,4.112215584758012e-06
173.55932203389833,3.6703571943360167e-06
173.70653095843934,3.139476825589713e-06
173.85398981324278,2.315191288426065e-06
174.0016992353441,1.8541078301630324e-06
174.14965986394557,1.6668355256514514e-06
174.2978723404255,1.4465159066895597e-06
174.44633730834755,1.1780173415625998e-06
174.59505541346974,8.245878415756314e-07
174.74402730375425,5.563657582745232e-07
174.8932536293766,4.756679240273576e-07
175.04273504273505,3.868964306514422e-07
175.1924721984602,2.6470135877719506e-07
175.34246575342465,2.0554657116134637e-07
175.49271636675235,1.6464147500927506e-07
175.6432246998285,1.2069645390713953e-07
175.79399141630904,1.0002289948035454e-07
175.94501718213058,6.337349954993285e-08
176.0963026655202,3.873196804077918e-08
176.24784853700515,5.589476577271409e-08
176.3996554694229,4.5555232864361575e-08
176.55172413793102,1.1833772270663509e-08
176.70405522001724,8.566536912049368e-10
176.85664939550952,1.4466226640088481e-08
177.00950734658602,1.89835548748162e-08
177.16262975778545,1.947324006502432e-09
177.3160173160173,8.787928673399166e-09
177.46967071057193,2.2947456752707378e-08
177.62359063313096,1.647343614736989e-08
177.77777777777777,7.297269036433782e-09
177.93223284100782,1.177896830528688e-08
178.08695652173913,7.524810923503815e-09
178.24194952132288,1.7106538752912424e-10
178.397212543554,3.3526855323813455e-09
178.55274629468178,3.530259423687629e-10
178.70855148342056,4.876338879290558e-09
178.86462882096066,5.0524790473913784e-09
179.02097902097898,1.3308384221336635e-09
179.17760279965006,5.287450714775168e-10
179.33450087565674,2.6158335771652598e-09
179.4916739702016,9.81895624029579e-10
179.64912280701753,3.963457583521177e-09
179.80684811237927,7.103222555149806e-09
179.96485061511424,1.025227920025964e-09
180.12313104661388,5.413103558075615e-10
180.28169014084506,2.048959986724875e-09
180.44052863436124,1.768416405870307e-09
180.59964726631395,3.0779900789921685e-09
180.75904677846424,3.3987477652595357e-09
180.91872791519435,1.7256819678105802e-09
181.07869142351902,9.215768728552958e-09
181.23893805309734,4.250189765871838e-09
181.39946855624444,1.3321624243555575e-09
181.56028368794324,2.4659772078837262e-09
181.72138420585628,6.189694201030921e-10
181.88277087033748,3.083786455715652e-09
182.04444444444445,5.304063969123251e-09
182.20640569395016,3.856330585911098e-09
182.3686553873553,8.107249412018788e-10
182.53119429590015,9.358751423927359e-10
182.69402319357712,2.873984631004291e-10
182.85714285714286,2.7560539694497184e-09
183.0205540661305,3.3222050069915654e-09
183.18425760286226,9.898158598104242e-10
183.34825425246197,4.242381321037664e-09
183.51254480286738,1.4684199017175609e-09
183.67713004484304,2.6473124858401345e-09
183.84201077199282,5.005708107748462e-10
184.00718778077265,1.226640748630784e-09
184.1726618705036,2.666630284373121e-09
184.33843384338437,4.086610290941401e-09
184.5045045045045,1.636712151674578e-09
184.67087466185754,1.1515701646460657e-09
184.83754512635377,3.741431818625093e-09
185.0045167118338,1.8899888087345604e-09
185.17179023508135,2.580898545613807e-09
185.33936651583707,4.89428915100703e-09
185.5072463768116,9.161985904239554e-09
185.675430643699,5.226145832538222e-09
185.84392014519057,1.828878089302745e-09
186.01271571298818,4.551103433792678e-09
186.1818181818182,6.963767419000108e-09
186.3512283894449,2.5631914443814846e-09
186.52094717668484,7.670286070071827e-09
186.69097538742025,5.445807670633413e-11
186.86131386861314,6.755769071151839e-09
187.03196347031962,5.9461518060610025e-09
187.20292504570384,8.405838921866901e-09
187.37419945105214,3.818018961465225e-09
187.54578754578753,3.0223137415228046e-09
187.71769019248396,7.046722083860691e-09
187.88990825688072,2.0701477666659316e-09
188.06244260789717,1.0401729562995213e-12
188.23529411764707,2.722121858886344e-09
188.40846366145354,1.974195526205621e-09
188.5819521178637,5.003850833365911e-10
188.75576036866357,1.4165254471176822e-09
188.92988929889296,9.875818174051554e-10
189.10433979686056,4.866064713558398e-11
189.27911275415894,1.1366451432975409e-08
189.45420906567992,1.4356437259805023e-08
189.62962962962962,1.0297991462407211e-11
189.80537534754404,5.979187148407391e-09
189.98144712430428,1.8930534300801651e-10
190.15784586815226,4.655695636824826e-09
190.3345724907063,3.220965662636492e-09
190.51162790697674,2.5462185271115107e-09
190.68901303538178,3.0050588387979264e-09
190.8667287977633,1.501112967607371e-09
191.044776119403,3.181355133277475e-10
191.22315592903828,5.91082072386666e-11
191.4018691588785,2.799697329651903e-10
191.5809167446211,9.531249839938368e-10
191.76029962546815,5.4165718641590295e-11
191.94001874414244,1.4219745216039759e-09
192.12007504690433,2.460234220398626e-09
192.3004694835681,3.1653521885709e-09
192.48120300751881,5.4221382046430615e-09
192.66227657572907,9.77004180774196e-10
192.8436911487759,5.109564627530838e-10
193.02544769085767,1.3625356223485815e-09
193.2075471698113,4.608524312378424e-09
193.38999055712932,3.764620200542814e-09
193.57277882797732,8.05753848713746e-10
193.75591296121098,8.080191049893841e-11
193.93939393939394,4.226832704051475e-12
194.12322274881518,7.96743304078142e-10
194.30740037950665,3.827851255616628e-09
194.49192782526114,3.922525971246303e-09
194.67680608365018,4.7047739292167774e-09
194.86203615604185,4.876049826877386e-09
195.04761904761907,1.020122089522731e-09
195.23355576739752,2.398247581158958e-09
195.4198473282443,2.9852489544069427e-09
195.6064947468959,4.036153520988805e-11
195.79349904397705,2.6116786740873305e-09
195.9808612440191,3.048522042516242e-09
196.1685823754789,1.0398237048399795e-09
196.35666347075744,2.0600543210079824e-09
196.5451055662188,7.652018846282915e-09
196.73390970220942,5.150226615269141e-09
196.92307692307693,3.434246154211074e-10
197.1126082771896,1.737288642109451e-09
197.30250481695566,1.5780031645822503e-09
197.4927675988428,5.368560171358763e-10
197.68339768339766,1.5085232420147775e-09
197.8743961352657,3.4703483773242125e-09
198.06576402321085,4.2188572774404235e-09
198.25750242013552,6.21805295493078e-10
198.44961240310076,1.2186944538473128e-09
198.64209505334625,9.790514501040363e-10
198.83495145631065,1.9290088688791e-09
199.02818270165207,2.0571200859621722e-09
199.22178988326846,2.740905959178278e-09
199.4157740993184,1.2007750962963414e-09
199.61013645224173,2.307590491115674e-09
199.8048780487805,2.4278280447587873e-09
200.0,1.3842070298548535e-08
200.19550342130987,1.3772471739907738e-09
200.3913894324853,6.697338762611005e-09
200.58765915768853,5.1045750135378706e-09
200.78431372549022,1.150569766232728e-09
200.9813542688911,3.4317192125930026e-09
201.17878192534383,8.072443443654531e-09
201.37659783677483,2.8510929914928507e-09
201.5748031496063,9.219688165528065e-10
201.77339901477833,3.5137929792607334e-10
201.9723865877712,3.361385013409663e-09
202.1717670286278,5.42526290867671e-10
202.3715415019763,5.075172171039817e-09
202.57171117705244,1.4776490387789393e-08
202.77227722772278,6.938580706792456e-09
202.97324083250743,2.2102176951867232e-09
