"Wavelength, nm",Intensity
136.44237175216523,3.593656401338931e-26
136.53333333333333,4.146734732588188e-26
136.62441627751835,5.1384134386216063e-26
136.71562082777035,6.81846689193311e-26
136.80694722778892,7.745066570488316e-26
136.89839572192514,9.558323947156239e-26
136.98996655518394,1.0910218492487498e-25
137.08165997322624,1.8843541708507691e-25
137.17347622237108,1.957792397244429e-25
137.26541554959786,5.950769659261766e-24
137.35747820254863,3.4269895568553796e-23
137.4496644295302,1.7251309535250136e-22
137.54197447951645,4.795722819669917e-21
137.63440860215053,3.971256683452958e-20
137.72696704774717,1.4835992016410262e-19
137.81965006729476,2.777696533724388e-19
137.9124579124579,2.2594856974022564e-19
138.0053908355795,3.128307997566672e-19
138.09844908968307,2.922953125797003e-18
138.19163292847506,1.2629230064838029e-17
138.28494260634707,3.061994449679034e-17
138.37837837837836,4.7875559120920295e-17
138.47194050033806,5.2398123600148165e-17
138.5656292286874,5.516004047896301e-17
138.65944482058225,1.0774918564665596e-16
138.75338753387533,2.43468194795824e-16
138.84745762711862,4.3281467866214315e-16
138.94165535956583,6.516808782365996e-16
139.03598099117448,9.121805689476468e-16
139.1304347826087,1.3017534746708595e-15
139.22501699524133,1.979876156591418e-15
139.31972789115645,3.1143772414466554e-15
139.4145677331518,4.8375997787238546e-15
139.50953678474113,6.808533635236747e-15
139.60463531015677,7.95234877523533e-15
139.69986357435198,7.523451845143478e-15
139.79522184300342,6.179152660740858e-15
139.89071038251367,4.7579295623211085e-15
139.98632946001365,3.307201141701335e-15
140.08207934336525,2.7762028595035654e-15
140.17796030116358,4.166899386860239e-15
140.27397260273972,6.004093768919751e-15
140.37011651816314,5.214997295556689e-15
140.46639231824417,1.493295217007234e-15
140.56280027453673,1.2085477221205756e-15
140.65934065934067,1.19473136612603e-14
140.75601374570448,3.266801480062594e-14
140.85281980742778,5.394952740758616e-14
140.949759119064,6.617517554607571e-14
141.04683195592284,6.528385363011937e-14
141.14403859407307,5.652651446843263e-14
141.24137931034483,5.048401203653656e-14
141.33885438233264,4.839632621158156e-14
141.4364640883978,3.9491246847838816e-14
141.53420870767104,2.1239130545661653e-14
141.6320885200553,1.0848525766498891e-14
141.73010380622836,2.3045612667549012e-14
141.8282548476454,5.289635739533941e-14
141.92654192654192,8.671600943296088e-14
142.0249653259362,1.1472945770174875e-13
142.1235253296322,1.3019287653870515e-13
142.22222222222223,1.2250504798421363e-13
142.32105628908963,8.478866018410375e-14
142.42002781641168,3.8147375381290996e-14
142.51913709116212,2.672433991750516e-14
142.6183844011142,6.288205199636551e-14
142.7177700348432,1.0516266507095388e-13
142.81729428172943,1.1822884822278638e-13
142.91695743196092,1.2236486566247302e-13
143.0167597765363,1.6032532826383224e-13
143.11670160726763,2.4728366992897116e-13
143.21678321678323,3.5348938352313563e-13
143.31700489853043,4.0632886038318453e-13
143.4173669467787,3.435849580442802e-13
143.5178696566223,1.8930807757497915e-13
143.61851332398317,4.97312489958524e-14
143.71929824561403,3.010037202903813e-15
143.8202247191011,1.9456623297952403e-14
143.92129304286718,3.3295070366152735e-14
144.0225035161744,2.2968832485171423e-14
144.12385643912737,1.3302526043034964e-14
144.22535211267606,2.1725886470634493e-14
144.32699083861874,2.570681078707195e-14
144.42877291960508,2.5237991264550636e-14
144.530698659139,1.3597765555126998e-14
144.6327683615819,1.0198491383590138e-14
144.73498233215545,2.326337253136877e-14
144.83734087694484,1.5943695588129366e-14
144.9398443029016,1.116503878153676e-14
145.04249291784703,1.47465014317405e-14
145.14528703047483,5.470719281324805e-14
145.24822695035462,7.65675747466506e-14
145.35131298793468,1.2732830472363145e-13
145.45454545454544,2.1096478099496155e-13
145.55792466240226,1.71157448379741e-13
145.66145092460883,1.1325357926694122e-13
145.76512455516016,3.2435776678643783e-13
145.86894586894587,4.813773503321244e-13
145.9729151817534,9.903731776218823e-14
146.07703281027102,2.1507660621251726e-13
146.18129907209135,2.076518170832871e-13
146.28571428571428,6.943910228505123e-15
146.39027877055037,3.776630577778492e-13
146.49499284692416,9.909503126017756e-13
146.59985683607732,5.599370785970015e-13
146.7048710601719,1.3336695108439927e-12
146.8100358422939,4.28612119312872e-12
146.91535150645623,2.8394255431968664e-12
147.0208183776023,1.2330282704209536e-12
147.1264367816092,1.7327265691400516e-11
147.23220704529115,1.3006555285810987e-10
147.33812949640287,3.7561263969386323e-10
147.4442044636429,5.749528833095055e-10
147.55043227665706,5.0307830874872e-10
147.6568132660418,3.150928040971963e-10
147.76334776334778,6.80468117700538e-10
147.87003610108303,2.2274818574177467e-09
147.97687861271675,4.368514045787716e-09
148.08387563268258,5.503423676212693e-09
148.19102749638205,4.528924966868539e-09
148.29833454018825,2.676155271489956e-09
148.40579710144928,3.1674450687429125e-09
148.51341551849166,5.385345658821639e-09
148.6211901306241,6.355963828299027e-09
148.72912127814087,4.509842707855891e-09
148.8372093023256,1.5445753269231885e-09
148.94545454545454,2.74713499327597e-09
149.0538573508006,4.338885670957406e-09
149.16241806263656,2.7914689413230294e-09
149.27113702623907,3.0104027173416255e-09
149.38001458789202,1.856518660524237e-09
149.4890510948905,3.6747886069965557e-10
149.59824689554418,2.0213803062747804e-09
149.70760233918128,6.833095089960071e-10
149.81711777615214,1.0123617888074691e-09
149.9267935578331,5.3506450801173016e-09
150.03663003663004,3.613963742085981e-09
150.1466275659824,7.622001920395062e-10
150.25678650036684,3.9338364077024724e-09
150.36710719530103,4.440021993311447e-09
150.47759000734754,5.044949207469295e-09
150.58823529411762,1.1057868856595396e-08
150.69904341427517,6.751646044182214e-09
150.8100147275405,6.993570461893098e-10
150.92114959469419,1.0227937696895355e-08
151.03244837758112,2.2731627791716794e-08
151.1439114391144,6.554435515690527e-08
151.25553914327915,1.418513345123765e-07
151.3673318551367,1.534670552771915e-07
151.47928994082838,1.1266708919802782e-07
151.59141376757958,1.7261304333654494e-07
151.7037037037037,3.266310881821631e-07
151.81616011860638,4.581925426743631e-07
151.92878338278933,6.44735337669496e-07
152.04157386785448,9.847393664970315e-07
152.15453194650817,1.4448504834817423e-06
152.26765799256503,2.1832561211941136e-06
152.38095238095235,3.2993874325136703e-06
152.4944154877141,4.548668959104711e-06
152.6080476900149,6.207230876979806e-06
152.72184936614468,8.952377237338589e-06
152.8358208955224,1.2503730311648904e-05
152.9499626587005,1.6285328076214874e-05
153.0642750373692,2.035653152036392e-05
153.1787584143605,2.4002440645375062e-05
153.29341317365268,2.60277593379092e-05
153.40823970037454,2.605707624363363e-05
153.5232383808096,2.2482408424850654e-05
153.6384096024006,1.39017294671462e-05
153.75375375375376,4.781833233737354e-06
153.86927122464311,4.0976963314837576e-06
153.98496240601503,2.497845393585159e-05
154.10082768999246,9.407929743821847e-05
154.2168674698795,0.0002537318337564831
154.33308214016577,0.0005541649263107608
154.4494720965309,0.0010401181021761612
154.56603773584905,0.0017332490997260274
154.68277945619334,0.0026688867978462484
154.79969765684052,0.00395200885082326
154.91679273827532,0.005603886995217279
155.0340651021953,0.007316173783725257
155.15151515151516,0.008701982555006184
155.2691432903715,0.009932360358131248
155.38694992412746,0.011630559337943982
155.50493545937738,0.013704644531083922
155.62310030395136,0.014756253161704673
155.74144486692012,0.013801145527613997
155.8599695585997,0.01263429084378193
155.97867479055597,0.014058010510444323
156.09756097560975,0.016519244367429485
156.21662852784135,0.014877317458559693
156.33587786259542,0.009521712227962342
156.45530939648586,0.00783359099676748
156.5749235474006,0.01157913895934671
156.69472073450652,0.012465209860571584
156.8147013782542,0.006784421212121567
156.93486590038313,0.0025837087714210578
157.05521472392638,0.005095013162865304
157.17574827321565,0.007914280292012776
157.29646697388634,0.0053457242019171874
157.4173712528824,0.001521285733853765
157.53846153846155,0.0018121829245999438
157.65973826020013,0.00445109858169087
157.78120184899845,0.004794329278817376
157.9028527370856,0.002453494498135195
158.02469135802468,0.0010243117710904948
158.14671814671814,0.002456542558212003
158.26893353941267,0.004404155274081842
158.39133797370457,0.004091221434801129
158.5139318885449,0.002415107742015963
158.63671572424477,0.0021405380721935623
158.7596899224806,0.0038522470920738044
158.88285492629947,0.005639573637750661
159.0062111801242,0.00582841401708175
159.12975912975912,0.004863546692337221
159.25349922239502,0.004565671557833906
159.37743190661476,0.005879376800017042
159.50155763239874,0.00782732365873278
159.62587685113016,0.008829303516996024
159.7503900156006,0.008494667013704743
159.87509758001562,0.0078290894208637
160.0,0.008012228196445894
160.12509773260362,0.009207785923461416
160.2503912363067,0.010533525466939916
160.37588097102582,0.011058540727014487
160.5015673981191,0.010667641581215625
160.62745098039213,0.010001418535911124
160.7535321821036,0.009764673376741518
160.87981146897093,0.010125738696957364
161.0062893081761,0.010675576955451346
161.13296616837135,0.010899504044235786
161.25984251968504,0.010616545877187437
161.38691883372735,0.009976095150342534
161.51419558359618,0.009236172855644141
161.64167324388316,0.008593261484457498
161.7693522906793,0.008039876898828168
161.89723320158103,0.007435639874690817
162.0253164556962,0.006774065681255538
162.15360253365006,0.006170898542155455
162.28209191759112,0.0056843075851703605
162.41078509119745,0.0053444235883640095
162.53968253968253,0.005169685427410637
162.66878474980143,0.005087549518148955
162.79809220985692,0.005011926338496071
162.92760540970565,0.004905997704373032
163.05732484076432,0.00472986720137022
163.18725099601593,0.004500261845231089
163.31738437001593,0.004256619794079881
163.44772545889865,0.003997483013197321
163.57827476038338,0.0037640457724057766
163.709032773781,0.0035745544312409867
163.84,0.0033982629538272264
163.97117694155327,0.0032295109132370143
164.1025641025641,0.003054484017171978
164.23416198877305,0.002859105759228394
164.3659711075441,0.002649409138976656
164.49799196787149,0.002431598285980763
164.63022508038586,0.002205391376333016
164.76267095736122,0.001970489661139123
164.89533011272144,0.0017418729307584486
165.02820306204674,0.0015278221211211908
165.16129032258064,0.0013169147710674713
165.29459241323647,0.0011100163284316605
165.4281098546042,0.0009207138527282268
165.56184316895713,0.0007520914753578624
165.6957928802589,0.0006013301018689971
165.82995951417004,0.000472899509083283
165.9643435980551,0.0003696538781009266
166.09894566098947,0.00028520218535324244
166.23376623376623,0.00021651566252779448
166.36880584890332,0.00016403715702902047
166.5040650406504,0.00012343482624362697
166.63954434499593,9.111924292809635e-05
166.77524429967426,6.630544734800579e-05
166.9111654441728,4.786418903395233e-05
167.047308319739,3.438630298523088e-05
167.18367346938777,2.4285044922276333e-05
167.3202614379085,1.6907248512613987e-05
167.45707277187245,1.1887358328221209e-05
167.59410801963992,8.115824177574906e-06
167.7313677313677,5.320789991941953e-06
167.86885245901638,3.613511177647109e-06
168.00656275635768,2.4785733039484127e-06
168.14449917898193,1.6230395493352183e-06
168.28266228430567,1.0362984470189872e-06
168.42105263157896,6.617251144730732e-07
168.559670781893,4.3913487370940495e-07
168.6985172981878,2.46131584198896e-07
168.83759274525966,1.0182300281826934e-07
168.97689768976898,9.732688218900242e-08
169.11643270024774,1.0195742040610138e-07
169.25619834710741,3.992189992656082e-08
169.39619520264682,1.0507169940150203e-08
169.53642384105962,1.5531402080629547e-08
169.67688483844242,8.624899579892413e-09
169.81757877280262,2.925483701169694e-09
169.95850622406635,6.837402587646443e-09
170.09966777408638,5.839937641100241e-09
170.24106400665005,5.4490476754978846e-09
170.3826955074875,1.0369933985196994e-08
170.52456286427974,8.470828591902105e-09
170.66666666666666,4.217782407938968e-09
170.8090075062552,4.974861512418924e-10
170.9515859766277,1.9667585397880123e-09
171.09440267335003,2.7967323402759187e-09
171.23745819397996,3.0744174264030834e-09
171.3807531380753,4.4628934520612025e-09
171.52428810720266,3.824537712029982e-09
171.66806370494552,4.515939558570208e-09
171.81208053691276,2.6319368607588575e-09
171.95633921074725,8.504997416821823e-09
172.10084033613444,7.78228863879682e-09
172.24558452481077,1.0123157467151555e-09
172.3905723905724,3.179968563619912e-09
172.5358045492839,3.507980855392618e-09
172.681281618887,1.2774314935120782e-09
172.82700421940928,1.1406593271350268e-09
172.97297297297297,8.836198205155054e-10
173.11918850380385,2.247583664346963e-09
173.26565143824024,1.7829993501604492e-09
173.41236240474177,1.7010895087740285e-10
173.55932203389833,6.151336834074584e-10
173.70653095843934,5.322976811535814e-09
173.85398981324278,1.4157459214834496e-08
174.0016992353441,1.2172682420371816e-08
174.14965986394557,1.4067931431956419e-09
174.2978723404255,1.304041424586311e-09
174.44633730834755,6.834277089006958e-10
174.59505541346974,5.342503468288993e-09
174.74402730375425,1.350052676528077e-08
174.8932536293766,7.4390148159338166e-09
175.04273504273505,1.7157344460473904e-09
175.1924721984602,1.5824843921441467e-09
175.34246575342465,5.100560291117837e-10
175.49271636675235,8.4389806947582e-10
175.6432246998285,5.489638867303179e-09
175.79399141630904,4.086824414609184e-09
175.94501718213058,5.072952564098755e-10
176.0963026655202,1.346637361761944e-09
176.24784853700515,2.4935696942050754e-09
176.3996554694229,1.0768572030286867e-09
176.55172413793102,1.9570105282915674e-09
176.70405522001724,3.5396704632193675e-09
176.85664939550952,2.131739089259864e-10
177.00950734658602,8.021560526145164e-10
177.16262975778545,5.0993479285543266e-11
177.3160173160173,3.75099689092166e-10
177.46967071057193,3.108088381507525e-10
177.62359063313096,1.301464450020424e-10
177.77777777777777,2.960761444051609e-10
177.93223284100782,1.1777345437535611e-09
178.08695652173913,8.359161190325299e-10
178.24194952132288,1.128856604404963e-10
178.397212543554,1.6582330343476681e-09
178.55274629468178,2.5745537702596553e-09
178.70855148342056,1.1734205620523992e-09
178.86462882096066,1.1222268777296772e-08
179.02097902097898,1.7404352108430055e-08
179.17760279965006,4.49226614102777e-09
179.33450087565674,6.936362645116642e-10
179.4916739702016,5.277931821362025e-10
179.64912280701753,7.525836084310283e-09
179.80684811237927,4.570220854209742e-09
179.96485061511424,2.7114192474504846e-10
180.12313104661388,1.3366543580609155e-09
180.28169014084506,1.6768897604997816e-09
180.44052863436124,1.2542139262561887e-09
180.59964726631395,5.276980018098626e-09
180.75904677846424,6.6219590653403745e-09
180.91872791519435,3.543238982273594e-10
181.07869142351902,2.8435829584650024e-09
181.23893805309734,3.2488024574297228e-09
181.39946855624444,3.390851211315562e-09
181.56028368794324,2.2865015090421333e-09
181.72138420585628,4.119584291867279e-09
181.88277087033748,1.4320247574969038e-08
182.04444444444445,2.7829743714612573e-09
182.20640569395016,1.158624967274782e-09
182.3686553873553,6.829485731507471e-10
182.53119429590015,1.9588736237909335e-09
182.69402319357712,1.3390158471698378e-09
182.85714285714286,1.37509126258136e-09
183.0205540661305,4.44818102997079e-09
183.18425760286226,8.001597157207162e-10
183.34825425246197,6.856979716015595e-10
183.51254480286738,6.188175926855025e-10
183.67713004484304,2.1561756155323688e-09
183.84201077199282,3.0765338870418707e-09
184.00718778077265,8.308272809693981e-10
184.1726618705036,1.3760958217256028e-09
184.33843384338437,1.1891301629808116e-09
184.5045045045045,4.178111577297919e-10
184.67087466185754,1.9154706246521507e-09
184.83754512635377,4.321246925380245e-09
185.0045167118338,3.912679592885212e-09
185.17179023508135,1.7123060390297463e-09
185.33936651583707,4.677094233569845e-10
185.5072463768116,5.194265912242297e-10
185.675430643699,4.962062945194874e-09
185.84392014519057,7.0570236188490176e-09
186.01271571298818,1.118928407232758e-09
186.1818181818182,8.552178130608601e-10
186.3512283894449,3.561716902788322e-09
186.52094717668484,2.38601885206581e-09
186.69097538742025,1.8099249618739542e-09
186.86131386861314,7.107459614489501e-09
187.03196347031962,2.0613146756271332e-09
187.20292504570384,5.526664427617566e-10
187.37419945105214,2.238102864714866e-09
187.54578754578753,2.119970598634363e-09
187.71769019248396,3.9444688567669686e-10
187.88990825688072,1.9309335501323973e-09
188.06244260789717,1.3484412332805136e-09
188.23529411764707,4.686330862800883e-09
188.40846366145354,1.6583879565675581e-09
188.5819521178637,2.6021215419948965e-09
188.75576036866357,3.22570423841597e-09
188.92988929889296,3.6637898113753147e-09
189.10433979686056,9.151582821903932e-09
189.27911275415894,3.0582559439977125e-09
189.45420906567992,5.5910191278141645e-09
189.62962962962962,1.4043834466850114e-09
189.80537534754404,5.92033773672752e-09
189.98144712430428,7.511809528416903e-09
190.15784586815226,5.133823784791402e-09
190.3345724907063,1.8527830505355134e-09
190.51162790697674,6.666704787103321e-09
190.68901303538178,1.1047986510188759e-08
190.8667287977633,3.97652832281014e-10
191.044776119403,3.817856884071252e-09
191.22315592903828,3.726206029077591e-09
191.4018691588785,2.742087365155862e-09
191.5809167446211,8.870424325145112e-10
191.76029962546815,4.668338580797474e-09
191.94001874414244,6.933253025029983e-09
192.12007504690433,1.320068425260857e-09
192.3004694835681,5.046896987007928e-09
192.48120300751881,6.313912196871007e-09
192.66227657572907,2.3133125556538623e-09
192.8436911487759,9.760312780906919e-10
193.02544769085767,6.835583138852839e-10
193.2075471698113,1.5034274864983733e-10
193.38999055712932,3.07553769887783e-11
193.57277882797732,7.168598986537655e-10
193.75591296121098,3.0344372197303744e-09
193.93939393939394,1.4907571446408832e-09
194.12322274881518,1.0980793572208864e-09
194.30740037950665,6.512003708022683e-09
194.49192782526114,8.17414056914954e-10
194.67680608365018,3.78269199564897e-09
194.86203615604185,2.6030842047576072e-09
195.04761904761907,1.240241478428855e-09
195.23355576739752,3.4215163812128457e-09
195.4198473282443,3.825163574848433e-09
195.6064947468959,4.842373873883837e-09
195.79349904397705,2.26242379215138e-09
195.9808612440191,3.873511286896437e-09
196.1685823754789,3.3167414208232023e-09
196.35666347075744,3.2445742818214254e-09
196.5451055662188,4.923367473377336e-09
196.73390970220942,6.851994395916966e-10
196.92307692307693,2.986321723045701e-09
197.1126082771896,1.7007902114715752e-10
197.30250481695566,6.977862793654673e-09
197.4927675988428,1.4692946371282132e-09
197.68339768339766,5.809515470372095e-09
197.8743961352657,6.176645757515841e-09
198.06576402321085,3.948229452898361e-09
198.25750242013552,4.123208470919865e-09
198.44961240310076,4.585048097448521e-10
198.64209505334625,1.6550552697388162e-09
198.83495145631065,1.159438127954455e-09
199.02818270165207,1.8516129481835377e-09
199.22178988326846,4.058747571009069e-09
199.4157740993184,1.2295238439617298e-08
199.61013645224173,3.0955043992887525e-09
199.8048780487805,3.217486531764447e-10
200.0,4.999085090555055e-10
200.19550342130987,1.939758807735572e-10
200.3913894324853,5.365136902905193e-10
200.58765915768853,1.0415711003490174e-09
200.78431372549022,4.927883737757848e-10
200.9813542688911,4.332460514689976e-10
201.17878192534383,3.063561727674653e-10
201.37659783677483,6.68860742872979e-10
201.5748031496063,1.5329471893555968e-09
201.77339901477833,1.4261280686515324e-09
201.9723865877712,1.7169294586802407e-10
202.1717670286278,2.8641906157096384e-09
202.3715415019763,6.299484689643399e-09
