"Wavelength, nm",Intensity
136.44237175216523,7.7490890089901e-26
136.53333333333333,8.968205640529931e-26
136.62441627751835,9.93868542115003e-26
136.71562082777035,1.195300783858254e-25
136.80694722778892,1.403185356284361e-25
136.89839572192514,1.7057232858133418e-25
136.98996655518394,1.8517202363110895e-25
137.08165997322624,2.5294857702823104e-25
137.17347622237108,3.3109256042505075e-25
137.26541554959786,7.372146562830243e-26
137.35747820254863,6.906566238545335e-24
137.4496644295302,9.970158790616597e-23
137.54197447951645,7.632537831092276e-22
137.63440860215053,5.0019907807347174e-21
137.72696704774717,2.993749576646905e-20
137.81965006729476,1.5346983979864612e-19
137.9124579124579,6.519833618814012e-19
138.0053908355795,2.301603807554356e-18
138.09844908968307,6.847012715223536e-18
138.19163292847506,1.7462070391392224e-17
138.28494260634707,3.905423471242302e-17
138.37837837837836,7.892464577512495e-17
138.47194050033806,1.4968887742117177e-16
138.5656292286874,2.7819495920709237e-16
138.65944482058225,5.236429299968179e-16
138.75338753387533,1.0037392764088546e-15
138.84745762711862,1.927293566461795e-15
138.94165535956583,3.636444021302241e-15
139.03598099117448,6.663182742007294e-15
139.1304347826087,1.1808328685876493e-14
139.22501699524133,2.0252663989577843e-14
139.31972789115645,3.3695820571585987e-14
139.4145677331518,5.453423038159162e-14
139.50953678474113,8.615042200531387e-14
139.60463531015677,1.3347251635032153e-13
139.69986357435198,2.0410371926751604e-13
139.79522184300342,3.103992483689761e-13
139.89071038251367,4.728814846335565e-13
139.98632946001365,7.256234561871524e-13
140.08207934336525,1.1242210542691626e-12
140.17796030116358,1.7562430990550802e-12
140.27397260273972,2.754489096492651e-12
140.37011651816314,4.316131255662375e-12
140.46639231824417,6.733217953515899e-12
140.56280027453673,1.0442627842370231e-11
140.65934065934067,1.6107058938063625e-11
140.75601374570448,2.473331027096578e-11
140.85281980742778,3.782199774612496e-11
140.949759119064,5.754039664467153e-11
141.04683195592284,8.690428072559634e-11
141.14403859407307,1.2994066738654465e-10
141.24137931034483,1.9182825356065942e-10
141.33885438233264,2.7904597248663016e-10
141.4364640883978,3.9951903298144255e-10
141.53420870767104,5.627219366544086e-10
141.6320885200553,7.796820876723044e-10
141.73010380622836,1.0626882389396146e-09
141.8282548476454,1.4245352530913155e-09
141.92654192654192,1.877465102335476e-09
142.0249653259362,2.4321271986490597e-09
142.1235253296322,3.0968461008801186e-09
142.22222222222223,3.877475741717375e-09
142.32105628908963,4.7781392277633465e-09
142.42002781641168,5.8032639740423855e-09
142.51913709116212,6.961755877483254e-09
142.6183844011142,8.275099348744317e-09
142.7177700348432,9.791849574053853e-09
142.81729428172943,1.1610502152260789e-08
142.91695743196092,1.3911208941979818e-08
143.0167597765363,1.699613553966941e-08
143.11670160726763,2.133776237476597e-08
143.21678321678323,2.7629966777651425e-08
143.31700489853043,3.683534623386523e-08
143.4173669467787,5.022712036546537e-08
143.5178696566223,6.942101486553425e-08
143.61851332398317,9.638761261846043e-08
143.71929824561403,1.334401726314258e-07
143.8202247191011,1.8319187082120386e-07
143.92129304286718,2.484595191350593e-07
144.0225035161744,3.320945646798622e-07
144.12385643912737,4.3677780334772814e-07
144.22535211267606,5.647939437376158e-07
144.32699083861874,7.177062549221475e-07
144.42877291960508,8.960546748175483e-07
144.530698659139,1.0993885633210718e-06
144.6327683615819,1.3263527841610186e-06
144.73498233215545,1.5745826842973545e-06
144.83734087694484,1.8416270215029433e-06
144.9398443029016,2.1269319329206267e-06
145.04249291784703,2.4325757985716247e-06
145.14528703047483,2.765007941847843e-06
145.24822695035462,3.1411549454836004e-06
145.35131298793468,3.5916716997117836e-06
145.45454545454544,4.161126457016093e-06
145.55792466240226,4.919418188201507e-06
145.66145092460883,5.971038441674194e-06
145.76512455516016,7.446540798133452e-06
145.86894586894587,9.515721594873867e-06
145.9729151817534,1.2411467600875082e-05
146.07703281027102,1.639726090212104e-05
146.18129907209135,2.1762901328688934e-05
146.28571428571428,2.888755705736123e-05
146.39027877055037,3.816764513456436e-05
146.49499284692416,4.992979012987515e-05
146.59985683607732,6.458505254481788e-05
146.7048710601719,8.25585525528208e-05
146.8100358422939,0.00010396353220222796
146.91535150645623,0.00012887913383450957
147.0208183776023,0.00015752414004371407
147.1264367816092,0.00018949386906903264
147.23220704529115,0.00022398498089411475
147.33812949640287,0.0002606880561060295
147.4442044636429,0.00029845616291929037
147.55043227665706,0.00033493926371819217
147.6568132660418,0.0003694721564967332
147.76334776334778,0.00040200660489258405
147.87003610108303,0.0004295992987095376
147.97687861271675,0.000450644032718673
148.08387563268258,0.0004674756554877297
148.19102749638205,0.0004784525314811401
148.29833454018825,0.00047981367478815894
148.40579710144928,0.00047865185693384715
148.51341551849166,0.00048644899643553305
148.6211901306241,0.0005047197432863409
148.72912127814087,0.000537147142516517
148.8372093023256,0.000601902577491345
148.94545454545454,0.000716274348869716
149.0538573508006,0.0008907379546214486
149.16241806263656,0.0011441930556027491
149.27113702623907,0.0015009546456161752
149.38001458789202,0.001977085878759915
149.4890510948905,0.002588376598193949
149.59824689554418,0.0033588389784709803
149.70760233918128,0.004309533326465524
149.81711777615214,0.005449536194658154
149.9267935578331,0.00677981469937334
150.03663003663004,0.008301118774073756
150.1466275659824,0.010014159867544437
150.25678650036684,0.011901813419354855
150.36710719530103,0.013923552669583898
150.47759000734754,0.01605067439595738
150.58823529411762,0.018276745230703106
150.69904341427517,0.02056234563640283
150.8100147275405,0.02282599965348251
150.92114959469419,0.02502871229977999
151.03244837758112,0.027186293813257243
151.1439114391144,0.02924647479390643
151.25553914327915,0.031056518045001466
151.3673318551367,0.03254645850595388
151.47928994082838,0.03384752145752289
151.59141376757958,0.03505522937365733
151.7037037037037,0.035937911787167716
151.81616011860638,0.036213298321161096
151.92878338278933,0.03615386937605294
152.04157386785448,0.03633580372802078
152.15453194650817,0.03654107603404553
152.26765799256503,0.03581625343851997
152.38095238095235,0.034222573847064716
152.4944154877141,0.03326881148350667
152.6080476900149,0.03342904750087907
152.72184936614468,0.03274066385504229
152.8358208955224,0.02990909197291724
152.9499626587005,0.02730764701556931
153.0642750373692,0.027619422927909767
153.1787584143605,0.028504681351482895
153.29341317365268,0.025496551343334315
153.40823970037454,0.020372131659395887
153.5232383808096,0.019837901888285513
153.6384096024006,0.023663496603846423
153.75375375375376,0.022920503743849525
153.86927122464311,0.015332481519231786
153.98496240601503,0.011886786484899128
154.10082768999246,0.018639966032580252
154.2168674698795,0.023333218335291395
154.33308214016577,0.01506742337201663
154.4494720965309,0.0063695297640897494
154.56603773584905,0.014171339169536092
154.68277945619334,0.027318703589111617
154.79969765684052,0.021921132519989894
154.91679273827532,0.005526806624368594
155.0340651021953,0.009447648517449753
155.15151515151516,0.032700123067230545
155.2691432903715,0.037068750679556964
155.38694992412746,0.013319477872198995
155.50493545937738,0.004125766727643454
155.62310030395136,0.03225278910185227
155.74144486692012,0.055017258111621746
155.8599695585997,0.03398354786264114
155.97867479055597,0.0050723850867445625
156.09756097560975,0.021036716375957176
156.21662852784135,0.05963663834442516
156.33587786259542,0.059089110732375306
156.45530939648586,0.022962089346207432
156.5749235474006,0.013115824610737863
156.69472073450652,0.04493267176567968
156.8147013782542,0.06637755225383234
156.93486590038313,0.048811013929382356
157.05521472392638,0.0279029639350716
157.17574827321565,0.03604418395251791
157.29646697388634,0.0545076896354491
157.4173712528824,0.05668331946423152
157.53846153846155,0.050019386693628695
157.65973826020013,0.050356739878558265
157.78120184899845,0.05308049808681647
157.9028527370856,0.05153219888698002
158.02469135802468,0.053361463483186426
158.14671814671814,0.06140414452012116
158.26893353941267,0.06393175628680446
158.39133797370457,0.05664198379658491
158.5139318885449,0.05196163557490174
158.63671572424477,0.05705436884300633
158.7596899224806,0.06253752124155769
158.88285492629947,0.06043108794290114
159.0062111801242,0.05583228916480151
159.12975912975912,0.05476395059959072
159.25349922239502,0.05503108752025962
159.37743190661476,0.05377372444567698
159.50155763239874,0.05260308194661735
159.62587685113016,0.05220072463778973
159.7503900156006,0.05039950431377779
159.87509758001562,0.04707308971106439
160.0,0.044717137235852314
160.12509773260362,0.04390907228031478
160.2503912363067,0.042721824002867455
160.37588097102582,0.040376253701214206
160.5015673981191,0.03804280339378135
160.62745098039213,0.03633447416843573
160.7535321821036,0.034696768117817925
160.87981146897093,0.03301046223666274
161.0062893081761,0.03168867569914583
161.13296616837135,0.030585167603754407
161.25984251968504,0.029352613888948016
161.38691883372735,0.028236421069469157
161.51419558359618,0.027559355448900234
161.64167324388316,0.027205362785227453
161.7693522906793,0.027026617894213508
161.89723320158103,0.02708267036867284
162.0253164556962,0.02741724730678647
162.15360253365006,0.028005425243876707
162.28209191759112,0.028861474734673476
162.41078509119745,0.030021066136617883
162.53968253968253,0.03145145656401625
162.66878474980143,0.033075256494070754
162.79809220985692,0.03486131864614782
162.92760540970565,0.03679105432714024
163.05732484076432,0.038814712701940486
163.18725099601593,0.040898335449103
163.31738437001593,0.04298183037182016
163.44772545889865,0.04496553141163006
163.57827476038338,0.04682083764805313
163.709032773781,0.04854470541003748
163.84,0.050081115367262716
163.97117694155327,0.05141711457620944
164.1025641025641,0.05257728594340197
164.23416198877305,0.0535647732355157
164.3659711075441,0.054435533546828216
164.49799196787149,0.05524048315788667
164.63022508038586,0.05592715864451128
164.76267095736122,0.05647655280490223
164.89533011272144,0.056936141661812885
165.02820306204674,0.05727247255776656
165.16129032258064,0.05742825663780114
165.29459241323647,0.05739130305853032
165.4281098546042,0.05708544855019343
165.56184316895713,0.05643076123448293
165.6957928802589,0.055422698198185856
165.82995951417004,0.05399999648712897
165.9643435980551,0.05211719590634231
166.09894566098947,0.04986018097126415
166.23376623376623,0.047247090067365466
166.36880584890332,0.04426455417692642
166.5040650406504,0.04106269473602306
166.63954434499593,0.03775231274700551
166.77524429967426,0.034347009903865
166.9111654441728,0.030972964418914912
167.047308319739,0.027758243135691404
167.18367346938777,0.02473496933597646
167.3202614379085,0.02196128201935248
167.45707277187245,0.019488768489629528
167.59410801963992,0.01732645229853689
167.7313677313677,0.015483303426975447
167.86885245901638,0.013931467719849678
168.00656275635768,0.012631480512554551
168.14449917898193,0.01157598970920567
168.28266228430567,0.01072654136747376
168.42105263157896,0.010012880353884406
168.559670781893,0.00940101238531134
168.6985172981878,0.00886744033669662
168.83759274525966,0.008367994583934182
168.97689768976898,0.00788129733014723
169.11643270024774,0.007394342829946038
169.25619834710741,0.0068821055440650095
169.39619520264682,0.006355220442218554
169.53642384105962,0.005822305106222979
169.67688483844242,0.005260950615775239
169.81757877280262,0.004694344920221418
169.95850622406635,0.004153948588928295
170.09966777408638,0.0036202301324154014
170.24106400665005,0.003102305884491275
170.3826955074875,0.0026372300117873987
170.52456286427974,0.0022182530614760524
170.66666666666666,0.0018313076365331642
170.8090075062552,0.0014880100026809949
170.9515859766277,0.0011935542529983422
171.09440267335003,0.0009426331841220133
171.23745819397996,0.0007322062796419649
171.3807531380753,0.0005589532209086616
171.52428810720266,0.0004195875462599099
171.66806370494552,0.0003106461403848441
171.81208053691276,0.0002258627774495828
171.95633921074725,0.00016067184142325156
172.10084033613444,0.0001133481439749615
172.24558452481077,7.965025118094698e-05
172.3905723905724,5.485176478892665e-05
172.5358045492839,3.7397387943034265e-05
172.681281618887,2.5753638769814247e-05
172.82700421940928,1.7819650701051516e-05
172.97297297297297,1.2866013150743098e-05
173.11918850380385,1.0020498819151705e-05
173.26565143824024,7.836479417754176e-06
173.41236240474177,6.1375498155028225e-06
173.55932203389833,5.311583487594958e-06
173.70653095843934,4.793867298105619e-06
173.85398981324278,4.204477727581125e-06
174.0016992353441,3.940504780070168e-06
174.14965986394557,3.836518720240549e-06
174.2978723404255,3.5102950695291985e-06
174.44633730834755,3.077066073847621e-06
174.59505541346974,2.6619021626183128e-06
174.74402730375425,2.4868860766931548e-06
174.8932536293766,2.426428286315351e-06
175.04273504273505,1.9801786116656185e-06
175.1924721984602,1.5257112207127425e-06
175.34246575342465,1.4653714531652037e-06
175.49271636675235,1.341778302690999e-06
175.6432246998285,1.0790271044081958e-06
175.79399141630904,9.720021962597296e-07
175.94501718213058,9.107358994358959e-07
176.0963026655202,7.701164296255202e-07
176.24784853700515,6.4371007704538e-07
176.3996554694229,5.78027067866591e-07
176.55172413793102,4.935866329987337e-07
176.70405522001724,3.4119130779309323e-07
176.85664939550952,2.6967715683138107e-07
177.00950734658602,3.200650257432157e-07
177.16262975778545,3.0001134430766185e-07
177.3160173160173,2.401487755561209e-07
177.46967071057193,2.381238993341851e-07
177.62359063313096,1.6660713043684618e-07
177.77777777777777,7.990183279112726e-08
177.93223284100782,1.1182089104369259e-07
178.08695652173913,1.2431518392782392e-07
178.24194952132288,7.407693691060064e-08
178.397212543554,7.127247348571867e-08
178.55274629468178,7.268385628072593e-08
178.70855148342056,3.7649799096252836e-08
178.86462882096066,2.354974625520473e-08
179.02097902097898,3.003133490850288e-08
179.17760279965006,2.0188497266668678e-08
179.33450087565674,4.975771492853244e-09
179.4916739702016,8.111751911960999e-09
179.64912280701753,1.025222361290272e-08
179.80684811237927,8.853600274110504e-09
179.96485061511424,6.651489823231974e-09
180.12313104661388,2.074815004873038e-09
180.28169014084506,3.3628879725451735e-09
180.44052863436124,7.438686358739837e-09
180.59964726631395,3.856268369528373e-09
180.75904677846424,3.773187116503775e-09
180.91872791519435,5.2736332918918494e-09
181.07869142351902,7.996433192374141e-09
181.23893805309734,9.52868824225563e-09
181.39946855624444,7.466106333753607e-09
181.56028368794324,3.8680513544979406e-10
181.72138420585628,3.912409042013877e-09
181.88277087033748,7.765823536168886e-09
182.04444444444445,7.291607243328058e-09
182.20640569395016,4.157412107629995e-09
182.3686553873553,1.1244220927741799e-08
182.53119429590015,1.2745826701625994e-08
182.69402319357712,3.0210820988488156e-09
182.85714285714286,2.0726227959497464e-09
183.0205540661305,9.215677264922722e-09
183.18425760286226,6.779363894986591e-09
183.34825425246197,2.2547475960384274e-10
183.51254480286738,3.989691741946576e-09
183.67713004484304,2.2565094901149104e-09
183.84201077199282,2.1125480193968017e-09
184.00718778077265,2.1987038711119685e-09
184.1726618705036,1.184981819464576e-08
184.33843384338437,3.085023053229733e-09
184.5045045045045,4.663156445685484e-09
184.67087466185754,7.088983892303891e-10
184.83754512635377,6.69598048884655e-09
185.0045167118338,1.4497419539532505e-08
185.17179023508135,7.613241997126219e-09
185.33936651583707,5.514587318995834e-10
185.5072463768116,9.137004144909996e-10
185.675430643699,1.1296267137576946e-10
185.84392014519057,1.5873640620909708e-09
186.01271571298818,1.090600727952996e-09
186.1818181818182,5.097940303644926e-09
186.3512283894449,4.928791024160244e-09
186.52094717668484,4.864392072171544e-09
186.69097538742025,3.613455421797301e-09
186.86131386861314,3.765169640674661e-11
187.03196347031962,1.4268307227887613e-09
187.20292504570384,2.7674579743761934e-09
187.37419945105214,4.359025037868965e-09
187.54578754578753,2.224845178816415e-09
187.71769019248396,5.560313509904468e-10
187.88990825688072,1.0449589020356151e-09
188.06244260789717,3.4992332400042683e-09
188.23529411764707,1.538803806076331e-08
188.40846366145354,5.018597872402991e-09
188.5819521178637,3.748710386889093e-09
188.75576036866357,8.644131699816876e-09
188.92988929889296,1.4578940511153262e-09
189.10433979686056,8.349887713023467e-10
189.27911275415894,2.993142075866655e-09
189.45420906567992,1.242902298793403e-09
189.62962962962962,1.0185905526588925e-09
189.80537534754404,3.4831043696786287e-09
189.98144712430428,3.860981332502683e-09
190.15784586815226,2.5534411149750435e-09
190.3345724907063,5.267350841379248e-09
190.51162790697674,2.726168705266425e-09
190.68901303538178,4.4210415609154204e-11
190.8667287977633,1.484666081269262e-09
191.044776119403,6.37381664688016e-10
191.22315592903828,2.110300607408856e-10
191.4018691588785,1.3672624048467035e-09
191.5809167446211,4.3106940243401894e-11
191.76029962546815,5.884137163513449e-09
191.94001874414244,1.1999644956612467e-08
192.12007504690433,2.3915039917068124e-09
192.3004694835681,1.2929338480066353e-09
192.48120300751881,1.5134635373224177e-09
192.66227657572907,1.7859103559643086e-10
192.8436911487759,2.096637708993773e-09
193.02544769085767,4.8088708250205695e-09
193.2075471698113,1.4338332250822747e-09
193.38999055712932,7.339395749879469e-10
193.57277882797732,5.510048106076155e-09
193.75591296121098,7.738172584045868e-09
193.93939393939394,9.111076080655483e-10
194.12322274881518,3.286696946564411e-09
194.30740037950665,5.056084860851137e-09
194.49192782526114,1.0798096208349688e-10
194.67680608365018,9.215926859248131e-09
194.86203615604185,5.029459843927545e-09
195.04761904761907,2.0972514242271562e-10
195.23355576739752,4.51838019983515e-09
195.4198473282443,1.5505584873345284e-08
195.6064947468959,9.180445490924345e-09
195.79349904397705,1.1013609396849681e-10
195.9808612440191,2.3927144530096266e-09
196.1685823754789,4.569555262061977e-11
196.35666347075744,1.2111875806627764e-09
196.5451055662188,1.306981420333741e-09
196.73390970220942,1.1942970777158032e-08
196.92307692307693,1.0545556732160676e-08
197.1126082771896,1.635484308388405e-09
197.30250481695566,6.980657338437128e-09
197.4927675988428,3.105055083372176e-09
197.68339768339766,1.0964073687527427e-10
197.8743961352657,5.377057485963286e-10
198.06576402321085,1.8555484814575357e-10
198.25750242013552,1.3177624386316232e-09
198.44961240310076,6.023844054245401e-09
198.64209505334625,4.8719835075028535e-09
198.83495145631065,1.3232497222587417e-10
199.02818270165207,3.215494415799558e-09
199.22178988326846,2.7119005246563067e-09
199.4157740993184,9.251435065485348e-10
199.61013645224173,1.9326232696597076e-10
199.8048780487805,5.520369186305054e-10
200.0,1.6182336027570614e-09
200.19550342130987,1.2999048915759694e-09
200.3913894324853,1.307637077110111e-09
200.58765915768853,1.114193606478204e-09
200.78431372549022,1.0967828381644993e-09
200.9813542688911,3.53718144024171e-09
201.17878192534383,6.0319743187046745e-09
201.37659783677483,4.718003504223563e-09
201.5748031496063,5.676894227452804e-09
201.77339901477833,1.2805799339858025e-09
201.9723865877712,1.5794682570564054e-10
202.1717670286278,1.1186084228359394e-09
202.3715415019763,1.4544708831583239e-09
202.57171117705244,7.324761505382408e-10
202.77227722772278,5.1863508089341075e-09
202.97324083250743,5.047207436799344e-09
203.17460317460316,2.808101043722414e-09
