"Wavelength, nm",Intensity
136.44237175216523,8.996216324416813e-27
136.53333333333333,1.03088652020387e-26
136.62441627751835,1.1233485639839671e-26
136.71562082777035,1.4306698380886108e-26
136.80694722778892,1.7546166284624393e-26
136.89839572192514,1.3927514807691132e-26
136.98996655518394,2.364661396280391e-26
137.08165997322624,1.2745117218332523e-26
137.17347622237108,3.3771733810716986e-25
137.26541554959786,6.197941022251912e-24
137.35747820254863,7.269253907992393e-23
137.4496644295302,7.746434876265232e-22
137.54197447951645,7.207417696513465e-21
137.63440860215053,5.285983254837886e-20
137.72696704774717,2.9893595645074364e-19
137.81965006729476,1.383371619288323e-18
137.9124579124579,5.558749183859726e-18
138.0053908355795,1.978630552413312e-17
138.09844908968307,6.252556960718411e-17
138.19163292847506,1.7732191598514376e-16
138.28494260634707,4.594097367676643e-16
138.37837837837836,1.1032017673535408e-15
138.47194050033806,2.477252447915918e-15
138.5656292286874,5.2346212934222305e-15
138.65944482058225,1.0469187035806144e-14
138.75338753387533,1.9899163186732838e-14
138.84745762711862,3.6049192994670375e-14
138.94165535956583,6.25488949025749e-14
139.03598099117448,1.0458080545952182e-13
139.1304347826087,1.6905645584836609e-13
139.22501699524133,2.644310472218721e-13
139.31972789115645,4.012282269227748e-13
139.4145677331518,5.944716568397767e-13
139.50953678474113,8.675446348829408e-13
139.60463531015677,1.256865636381915e-12
139.69986357435198,1.819827925872083e-12
139.79522184300342,2.6496595758289408e-12
139.89071038251367,3.89994087874223e-12
139.98632946001365,5.8211524087692804e-12
140.08207934336525,8.813188496122903e-12
140.17796030116358,1.3503393258391222e-11
140.27397260273972,2.0864621146273325e-11
140.37011651816314,3.23818487133684e-11
140.46639231824417,5.025498433947803e-11
140.56280027453673,7.763090879076527e-11
140.65934065934067,1.1885926537611913e-10
140.75601374570448,1.7965960875354325e-10
140.85281980742778,2.670377635286307e-10
140.949759119064,3.889530683098019e-10
141.04683195592284,5.537585790825673e-10
141.14403859407307,7.690259286215738e-10
141.24137931034483,1.0395589595786441e-09
141.33885438233264,1.365355167614649e-09
141.4364640883978,1.739516659977325e-09
141.53420870767104,2.1458656576393203e-09
141.6320885200553,2.558290583634577e-09
141.73010380622836,2.943737871943365e-09
141.8282548476454,3.2706740510860425e-09
141.92654192654192,3.525265376141955e-09
142.0249653259362,3.7368609232839945e-09
142.1235253296322,4.0166060874135675e-09
142.22222222222223,4.61106269754618e-09
142.32105628908963,5.968143794945288e-09
142.42002781641168,8.80790211635957e-09
142.51913709116212,1.419557596904209e-08
142.6183844011142,2.3615954311222798e-08
142.7177700348432,3.901793396893269e-08
142.81729428172943,6.281743777844262e-08
142.91695743196092,9.786477452645815e-08
143.0167597765363,1.4733077180308104e-07
143.11670160726763,2.144924252723898e-07
143.21678321678323,3.024263086030729e-07
143.31700489853043,4.1364667975758973e-07
143.4173669467787,5.497311035738201e-07
143.5178696566223,7.109129575236249e-07
143.61851332398317,8.95800255138628e-07
143.71929824561403,1.101333027740017e-06
143.8202247191011,1.3229524122199273e-06
143.92129304286718,1.5552465162798943e-06
144.0225035161744,1.7931113905868056e-06
144.12385643912737,2.0333757531767753e-06
144.22535211267606,2.277109323373773e-06
144.32699083861874,2.532323635187349e-06
144.42877291960508,2.816731551714888e-06
144.530698659139,3.1606601233123743e-06
144.6327683615819,3.609882667407585e-06
144.73498233215545,4.227151306969726e-06
144.83734087694484,5.092067784316593e-06
144.9398443029016,6.301314047348588e-06
145.04249291784703,7.966982469899389e-06
145.14528703047483,1.0209847036030525e-05
145.24822695035462,1.3156666235115022e-05
145.35131298793468,1.6940367550993412e-05
145.45454545454544,2.16870086372995e-05
145.55792466240226,2.751339751673413e-05
145.66145092460883,3.4548568092925426e-05
145.76512455516016,4.2919956048254093e-05
145.86894586894587,5.27431913147962e-05
145.9729151817534,6.419306397272183e-05
146.07703281027102,7.749972534647784e-05
146.18129907209135,9.28798318972159e-05
146.28571428571428,0.0001106737065952979
146.39027877055037,0.00013138888455633632
146.49499284692416,0.00015545057523494495
146.59985683607732,0.00018336946869898857
146.7048710601719,0.00021598044546103734
146.8100358422939,0.00025387132353411917
146.91535150645623,0.00029740703202920266
147.0208183776023,0.0003474894594803392
147.1264367816092,0.00040466336221093094
147.23220704529115,0.00046859143742204875
147.33812949640287,0.0005398931507582446
147.4442044636429,0.0006193734289343599
147.55043227665706,0.0007058939784826987
147.6568132660418,0.0007992661648069827
147.76334776334778,0.0009009144054358385
147.87003610108303,0.0010097681985277338
147.97687861271675,0.0011264302622201756
148.08387563268258,0.0012565318548097895
148.19102749638205,0.0013999988326399654
148.29833454018825,0.0015525030897155696
148.40579710144928,0.0017220014762618745
148.51341551849166,0.0019196291434747312
148.6211901306241,0.002142746826945958
148.72912127814087,0.0023914627974550443
148.8372093023256,0.002678553533268851
148.94545454545454,0.00301122462993119
149.0538573508006,0.0033939801063796165
149.16241806263656,0.003839203286558142
149.27113702623907,0.004351476274268145
149.38001458789202,0.004929612271762365
149.4890510948905,0.005582372358169502
149.59824689554418,0.006314773695740035
149.70760233918128,0.0071316844953329605
149.81711777615214,0.008052880910822457
149.9267935578331,0.009072405010543527
150.03663003663004,0.01015294309428799
150.1466275659824,0.011299012056126528
150.25678650036684,0.012539219682189202
150.36710719530103,0.013844625074795544
150.47759000734754,0.015179128802578788
150.58823529411762,0.016558995378448838
150.69904341427517,0.01796818317416863
150.8100147275405,0.019331303757570285
150.92114959469419,0.020625703645938312
151.03244837758112,0.021907824748672935
151.1439114391144,0.023184800119341386
151.25553914327915,0.024312140340411483
151.3673318551367,0.025131598541677767
151.47928994082838,0.02575892775738538
151.59141376757958,0.02645039415410897
151.7037037037037,0.027022563464027344
151.81616011860638,0.02694140470001297
151.92878338278933,0.026278278346208037
152.04157386785448,0.025781761320223757
152.15453194650817,0.025520632611206347
152.26765799256503,0.024450114466415124
152.38095238095235,0.022162509194131517
152.4944154877141,0.020014184372959154
152.6080476900149,0.019088997569262557
152.72184936614468,0.018016184984551233
152.8358208955224,0.015104788137948594
152.9499626587005,0.011912137176974705
153.0642750373692,0.011269638405655006
153.1787584143605,0.012023770123227619
153.29341317365268,0.010445722932537531
153.40823970037454,0.00739340157739258
153.5232383808096,0.0079367879293873
153.6384096024006,0.011935213900658046
153.75375375375376,0.012543784893108414
153.86927122464311,0.008294092956897533
153.98496240601503,0.007834060391560295
154.10082768999246,0.015065873668774666
154.2168674698795,0.01929111745586881
154.33308214016577,0.012375814038720885
154.4494720965309,0.00601309250821137
154.56603773584905,0.014000395564866343
154.68277945619334,0.02553344486062858
154.79969765684052,0.020369431548231814
154.91679273827532,0.006368910960748787
155.0340651021953,0.011333076782788143
155.15151515151516,0.03411341435009811
155.2691432903715,0.03983191309980568
155.38694992412746,0.01831594588923426
155.50493545937738,0.008234636713156636
155.62310030395136,0.03476077940271858
155.74144486692012,0.06130573525661804
155.8599695585997,0.04579835649279008
155.97867479055597,0.013303696008776053
156.09756097560975,0.018451034533753748
156.21662852784135,0.05500282047172654
156.33587786259542,0.06446657550421367
156.45530939648586,0.03252632764364644
156.5749235474006,0.01239922437500026
156.69472073450652,0.035844236457104516
156.8147013782542,0.06288624758602072
156.93486590038313,0.05185363461907976
157.05521472392638,0.025731306434994397
157.17574827321565,0.027284552061733476
157.29646697388634,0.04916875402070105
157.4173712528824,0.054420345446817786
157.53846153846155,0.03964160602170367
157.65973826020013,0.03233643756357781
157.78120184899845,0.0398871232846072
157.9028527370856,0.043718757933327364
158.02469135802468,0.03774837055064596
158.14671814671814,0.035375522504267676
158.26893353941267,0.040272999325072514
158.39133797370457,0.04102542713031742
158.5139318885449,0.03529475402504292
158.63671572424477,0.033905881157948015
158.7596899224806,0.03900071688000159
158.88285492629947,0.040007775708512605
159.0062111801242,0.03378309302767911
159.12975912975912,0.02949756361642116
159.25349922239502,0.031233383112436806
159.37743190661476,0.03237810929593433
159.50155763239874,0.02921940276282927
159.62587685113016,0.026453403328232514
159.7503900156006,0.027070611365301357
159.87509758001562,0.027609251977377392
160.0,0.025850597268437834
160.12509773260362,0.024525197083730473
160.2503912363067,0.025062773816442688
160.37588097102582,0.02494002143003117
160.5015673981191,0.023181943646633937
160.62745098039213,0.022170342137086584
160.7535321821036,0.022694039911757672
160.87981146897093,0.022804522677777203
161.0062893081761,0.02202304851179861
161.13296616837135,0.021867990888483662
161.25984251968504,0.022556667972863015
161.38691883372735,0.022964961325037378
161.51419558359618,0.02302503042556656
161.64167324388316,0.02357052458589768
161.7693522906793,0.024635685166570213
161.89723320158103,0.025565634632506776
162.0253164556962,0.026332942334029354
162.15360253365006,0.027533921960786988
162.28209191759112,0.02918130469418991
162.41078509119745,0.03068044645953933
162.53968253968253,0.03202067966442513
162.66878474980143,0.0336530821166133
162.79809220985692,0.0353649266204828
162.92760540970565,0.03666278173012471
163.05732484076432,0.03774118622848172
163.18725099601593,0.03891638945472764
163.31738437001593,0.03992529294829888
163.44772545889865,0.04053479691862336
163.57827476038338,0.04094744038015445
163.709032773781,0.04127079930807578
163.84,0.0413838205634235
163.97117694155327,0.04136005807856643
164.1025641025641,0.041389939392459225
164.23416198877305,0.041451806661485645
164.3659711075441,0.041498226093047194
164.49799196787149,0.04162960498610957
164.63022508038586,0.041857200832462194
164.76267095736122,0.04209725384799222
164.89533011272144,0.04235052818738804
165.02820306204674,0.042587482746502474
165.16129032258064,0.042751654256109835
165.29459241323647,0.04290037538562253
165.4281098546042,0.04299982360846335
165.56184316895713,0.04289490131307871
165.6957928802589,0.0426089411720057
165.82995951417004,0.042204148329505885
165.9643435980551,0.04156663734196058
166.09894566098947,0.04064671965853167
166.23376623376623,0.03951449726166863
166.36880584890332,0.0381786284486095
166.5040650406504,0.03662362362504851
166.63954434499593,0.034880450033177524
166.77524429967426,0.03302225287743899
166.9111654441728,0.031116238595299574
167.047308319739,0.029174472079482334
167.18367346938777,0.027237953120999286
167.3202614379085,0.025354911196596417
167.45707277187245,0.02350472599049806
167.59410801963992,0.021728254388123234
167.7313677313677,0.02009211911533817
167.86885245901638,0.018558131159733357
168.00656275635768,0.017117770718022333
168.14449917898193,0.015809646183439732
168.28266228430567,0.01461008355651251
168.42105263157896,0.013498158922319292
168.559670781893,0.01247462797569122
168.6985172981878,0.011529725576785587
168.83759274525966,0.010659221032793285
168.97689768976898,0.009838270639911917
169.11643270024774,0.009048839267302555
169.25619834710741,0.008303131924265118
169.39619520264682,0.007592836156398908
169.53642384105962,0.006909961735937304
169.67688483844242,0.006261420260113055
169.81757877280262,0.005636721445033414
169.95850622406635,0.005033465629293484
170.09966777408638,0.004462652138564988
170.24106400665005,0.00392551415302228
170.3826955074875,0.003424553889100438
170.52456286427974,0.0029640081385852116
170.66666666666666,0.002543853838559828
170.8090075062552,0.0021610973505318486
170.9515859766277,0.0018130265376836957
171.09440267335003,0.0015058616575007956
171.23745819397996,0.0012407876648076678
171.3807531380753,0.0010089351900311025
171.52428810720266,0.0008106578159187078
171.66806370494552,0.0006458939912301628
171.81208053691276,0.0005064223308285103
171.95633921074725,0.00039137697038054586
172.10084033613444,0.0003002285471981888
172.24558452481077,0.00022572507480129772
172.3905723905724,0.00016580232171374882
172.5358045492839,0.00012117381006363627
172.681281618887,8.77695378899633e-05
172.82700421940928,6.184217102440854e-05
172.97297297297297,4.2844995991755804e-05
173.11918850380385,2.9759110385294232e-05
173.26565143824024,2.0351374485819272e-05
173.41236240474177,1.3604915442951655e-05
173.55932203389833,9.197839646777203e-06
173.70653095843934,6.148102709006436e-06
173.85398981324278,4.0608656047936475e-06
174.0016992353441,2.914532648485575e-06
174.14965986394557,2.132313261037327e-06
174.2978723404255,1.503964496600906e-06
174.44633730834755,1.2483381697423603e-06
174.59505541346974,1.2335852420931418e-06
174.74402730375425,1.1329430766049981e-06
174.8932536293766,9.001940324054973e-07
175.04273504273505,7.872699367755685e-07
175.1924721984602,7.844188426675327e-07
175.34246575342465,6.55552732628736e-07
175.49271636675235,4.844939991442984e-07
175.6432246998285,3.6978715246565395e-07
175.79399141630904,2.673586322473735e-07
175.94501718213058,2.402379296053969e-07
176.0963026655202,2.770361693966326e-07
176.24784853700515,2.641143475187835e-07
176.3996554694229,2.2557374072731505e-07
176.55172413793102,2.449453753237424e-07
176.70405522001724,2.6516653795587326e-07
176.85664939550952,2.0156428548988184e-07
177.00950734658602,1.113506887177868e-07
177.16262975778545,8.34017520128228e-08
177.3160173160173,7.983727305102268e-08
177.46967071057193,6.294898177017261e-08
177.62359063313096,6.06275123373594e-08
177.77777777777777,5.5130539648767185e-08
177.93223284100782,2.7835238954262005e-08
178.08695652173913,1.8062257521819742e-08
178.24194952132288,2.3635463881693884e-08
178.397212543554,1.4731350630464828e-08
178.55274629468178,1.3754238605232116e-08
178.70855148342056,2.2415570822648615e-08
178.86462882096066,1.4439049293962702e-08
179.02097902097898,1.1235624934456725e-08
179.17760279965006,1.4973784046387905e-08
179.33450087565674,8.849383590394868e-09
179.4916739702016,9.309350012228876e-09
179.64912280701753,2.3862927675619254e-08
179.80684811237927,2.5183279972604974e-08
179.96485061511424,1.1106932288223188e-08
180.12313104661388,2.0970842427758678e-08
180.28169014084506,2.876765258113871e-08
180.44052863436124,1.9283022417533908e-08
180.59964726631395,7.236223364170791e-09
180.75904677846424,1.3651833425503244e-09
180.91872791519435,8.986642386383188e-09
181.07869142351902,5.299229952793387e-09
181.23893805309734,2.7027321196021965e-10
181.39946855624444,1.1951523619949236e-09
181.56028368794324,1.5268002258414216e-09
181.72138420585628,3.2531965395595447e-09
181.88277087033748,1.101205450871737e-09
182.04444444444445,2.2623650434144553e-09
182.20640569395016,5.703865743181194e-10
182.3686553873553,5.628410426778181e-09
182.53119429590015,3.369905988386113e-09
182.69402319357712,3.1445078308375063e-09
182.85714285714286,2.0575582951834397e-09
183.0205540661305,2.0771642627804529e-10
183.18425760286226,5.332572332674443e-09
183.34825425246197,1.4848542184155697e-08
183.51254480286738,2.9719321351538893e-09
183.67713004484304,3.59062532411847e-09
183.84201077199282,2.1841883567059536e-09
184.00718778077265,3.3942459543481906e-09
184.1726618705036,9.898784373147701e-09
184.33843384338437,2.84620996709987e-09
184.5045045045045,3.321921332077197e-09
184.67087466185754,2.769427348230659e-10
184.83754512635377,1.576277972687736e-09
185.0045167118338,5.092473129239362e-10
185.17179023508135,2.376412781860904e-11
185.33936651583707,1.1843775840044522e-09
185.5072463768116,3.1772989955555125e-09
185.675430643699,2.956425969961787e-09
185.84392014519057,4.2047538686155255e-09
186.01271571298818,7.850466331421464e-10
186.1818181818182,5.65614247748896e-09
186.3512283894449,1.6454066713941803e-09
186.52094717668484,6.127234114562717e-09
186.69097538742025,5.853804682270358e-09
186.86131386861314,9.856005680334141e-10
187.03196347031962,6.924248383133302e-10
187.20292504570384,2.8922161708315687e-09
187.37419945105214,3.2085781867999605e-09
187.54578754578753,7.5702584944999e-10
187.71769019248396,1.6212262669878463e-09
187.88990825688072,2.1909666505864393e-09
188.06244260789717,7.893151421209904e-09
188.23529411764707,5.331325136952799e-10
188.40846366145354,4.585985452437087e-09
188.5819521178637,6.1253311493881816e-09
188.75576036866357,3.886480240354093e-09
188.92988929889296,2.8667963494917692e-09
189.10433979686056,3.6348253111565047e-09
189.27911275415894,1.3788908563399292e-09
189.45420906567992,1.8344192063642262e-09
189.62962962962962,1.1802601388431426e-09
189.80537534754404,1.1381801056517685e-09
189.98144712430428,1.3553007486504611e-09
190.15784586815226,2.052422526447189e-09
190.3345724907063,2.2768071181729467e-09
190.51162790697674,1.4473261121310355e-09
190.68901303538178,1.3138310377371876e-11
190.8667287977633,1.952372625211111e-09
191.044776119403,2.030715107730852e-09
191.22315592903828,7.792400253127989e-10
191.4018691588785,1.5432612429402884e-09
191.5809167446211,5.326112182574201e-09
191.76029962546815,6.2914570333022914e-09
191.94001874414244,2.635490996069633e-09
192.12007504690433,1.183224005530596e-09
192.3004694835681,2.031673378433509e-09
192.48120300751881,1.1061066547460317e-09
192.66227657572907,5.387379791295066e-10
192.8436911487759,1.0615554035156692e-09
193.02544769085767,1.5197486706912648e-09
193.2075471698113,3.0438697402602313e-09
193.38999055712932,6.856070345742643e-09
193.57277882797732,1.2884275100480922e-09
193.75591296121098,2.0369398155387844e-09
193.93939393939394,1.831122499628464e-09
194.12322274881518,1.0699009823891261e-09
194.30740037950665,1.2914873854321662e-08
194.49192782526114,1.3298039804058903e-08
194.67680608365018,9.648489235903845e-10
194.86203615604185,1.5037092819395502e-09
195.04761904761907,7.265018358154462e-10
195.23355576739752,7.577227520858234e-10
195.4198473282443,6.446565048828844e-10
195.6064947468959,1.3128234161361808e-09
195.79349904397705,1.5615502402094526e-09
195.9808612440191,9.85988776812111e-10
196.1685823754789,2.7271057663895573e-09
196.35666347075744,9.535973303710387e-10
196.5451055662188,2.63012492768562e-09
196.73390970220942,3.268109344446347e-09
196.92307692307693,2.5936133868601925e-09
197.1126082771896,6.591909324502881e-10
197.30250481695566,3.351427484416907e-10
197.4927675988428,3.8227002352342885e-09
197.68339768339766,3.714124716514989e-09
197.8743961352657,9.31565279821288e-10
198.06576402321085,1.0022655863875047e-09
198.25750242013552,1.1292718780132742e-08
198.44961240310076,1.781147805713463e-08
198.64209505334625,8.695076388311125e-10
198.83495145631065,4.951655805121741e-09
199.02818270165207,2.4621260594938257e-09
199.22178988326846,1.8180869040772655e-10
199.4157740993184,7.342038811946873e-10
199.61013645224173,4.353167831110866e-09
199.8048780487805,2.6405161030809218e-09
200.0,9.355840876431557e-10
200.19550342130987,1.0177468799493816e-09
200.3913894324853,3.4544497450270337e-09
200.58765915768853,4.0907654750809365e-09
200.78431372549022,3.4059474706199296e-09
200.9813542688911,9.282197573112204e-10
201.17878192534383,1.0315842818302102e-09
201.37659783677483,6.653978018417182e-10
201.5748031496063,2.2491526126201076e-10
201.77339901477833,4.864297860300762e-10
201.9723865877712,2.0411772899998485e-09
202.1717670286278,1.0299478475679254e-08
202.3715415019763,1.023707143646524e-08
202.57171117705244,5.320425281930114e-09
202.77227722772278,2.495735597873432e-09
202.97324083250743,3.947437184793805e-09
203.17460317460316,8.613140895578774e-09
