"Wavelength, nm",Intensity
136.44237175216523,1.5285100757925621e-26
136.53333333333333,1.9998032263749008e-26
136.62441627751835,2.858202192155112e-26
136.71562082777035,3.077762178763491e-26
136.80694722778892,3.976711140609291e-26
136.89839572192514,4.410654119642148e-26
136.98996655518394,4.7368433289311547e-26
137.08165997322624,6.57960382183339e-26
137.17347622237108,5.602893099061152e-26
137.26541554959786,7.347716349513785e-25
137.35747820254863,2.9771260629540495e-23
137.4496644295302,4.279705173409787e-22
137.54197447951645,3.930972910173482e-21
137.63440860215053,2.3157071782269204e-20
137.72696704774717,1.0010549984871499e-19
137.81965006729476,3.6157079686751853e-19
137.9124579124579,1.149126250060983e-18
138.0053908355795,3.2121934545328164e-18
138.09844908968307,7.733018977576054e-18
138.19163292847506,1.5339002442021492e-17
138.28494260634707,2.3162791025961977e-17
138.37837837837836,2.3292557962257487e-17
138.47194050033806,1.2463880687215913e-17
138.5656292286874,9.811506435504955e-18
138.65944482058225,6.381768512229531e-17
138.75338753387533,2.6427902820285786e-16
138.84745762711862,7.762359342481995e-16
138.94165535956583,1.839809804843642e-15
139.03598099117448,3.664761477206498e-15
139.1304347826087,6.316786955361821e-15
139.22501699524133,9.776901198796824e-15
139.31972789115645,1.4150581145979598e-14
139.4145677331518,2.0072359799488646e-14
139.50953678474113,2.944154651279601e-14
139.60463531015677,4.6693032180878344e-14
139.69986357435198,8.028652826361314e-14
139.79522184300342,1.418595343069826e-13
139.89071038251367,2.448095337716522e-13
139.98632946001365,4.1026252644592454e-13
140.08207934336525,6.788040094909822e-13
140.17796030116358,1.1123034709869159e-12
140.27397260273972,1.7845356396562879e-12
140.37011651816314,2.7964280418073222e-12
140.46639231824417,4.312189734995914e-12
140.56280027453673,6.555377694890935e-12
140.65934065934067,9.792385603615561e-12
140.75601374570448,1.4362203247637667e-11
140.85281980742778,2.0741096346490808e-11
140.949759119064,2.9571978157555766e-11
141.04683195592284,4.1593880574811794e-11
141.14403859407307,5.7630245579765306e-11
141.24137931034483,7.867184769000701e-11
141.33885438233264,1.0581437429982761e-10
141.4364640883978,1.3998964221175114e-10
141.53420870767104,1.8183864075837108e-10
141.6320885200553,2.3228714105178934e-10
141.73010380622836,2.9302334760735306e-10
141.8282548476454,3.663724861406503e-10
141.92654192654192,4.5621519671100583e-10
142.0249653259362,5.694272139498842e-10
142.1235253296322,7.169028698788256e-10
142.22222222222223,9.155757668511797e-10
142.32105628908963,1.1913917220023615e-09
142.42002781641168,1.581810407201328e-09
142.51913709116212,2.137569895462154e-09
142.6183844011142,2.927743745475338e-09
142.7177700348432,4.045207554593234e-09
142.81729428172943,5.6058741730240614e-09
142.91695743196092,7.749232464669472e-09
143.0167597765363,1.0636204889264049e-08
143.11670160726763,1.4440110346145107e-08
143.21678321678323,1.9339978580248836e-08
143.31700489853043,2.550480924982683e-08
143.4173669467787,3.3068124174545474e-08
143.5178696566223,4.2095016468203046e-08
143.61851332398317,5.253862990565149e-08
143.71929824561403,6.419282450921815e-08
143.8202247191011,7.664760787533019e-08
143.92129304286718,8.929168301769203e-08
144.0225035161744,1.0130834806983473e-07
144.12385643912737,1.116520918654612e-07
144.22535211267606,1.1917169256089123e-07
144.32699083861874,1.227672540465602e-07
144.42877291960508,1.2150965130041256e-07
144.530698659139,1.1494575256448067e-07
144.6327683615819,1.0348148073903104e-07
144.73498233215545,8.866052821596109e-08
144.83734087694484,7.347003723197939e-08
144.9398443029016,6.27977851009784e-08
145.04249291784703,6.373109592694155e-08
145.14528703047483,8.552536818442512e-08
145.24822695035462,1.394817120871319e-07
145.35131298793468,2.3851710713409716e-07
145.45454545454544,3.967797333340871e-07
145.55792466240226,6.28417143604286e-07
145.66145092460883,9.446508083144408e-07
145.76512455516016,1.3541682215746033e-06
145.86894586894587,1.863897950756837e-06
145.9729151817534,2.4710240351741544e-06
146.07703281027102,3.1623620464782913e-06
146.18129907209135,3.927241859111269e-06
146.28571428571428,4.74738970755833e-06
146.39027877055037,5.5833850023365925e-06
146.49499284692416,6.4106431844984925e-06
146.59985683607732,7.2250057880463536e-06
146.7048710601719,7.99123271663189e-06
146.8100358422939,8.695223964707513e-06
146.91535150645623,9.404216792506075e-06
147.0208183776023,1.0150856630649012e-05
147.1264367816092,1.0955362009198496e-05
147.23220704529115,1.1995453877823519e-05
147.33812949640287,1.3415271615703332e-05
147.4442044636429,1.5218358601320273e-05
147.55043227665706,1.767284061322077e-05
147.6568132660418,2.114434768179644e-05
147.76334776334778,2.5496250806012522e-05
147.87003610108303,3.063595233635144e-05
147.97687861271675,3.710626049403823e-05
148.08387563268258,4.521441046598142e-05
148.19102749638205,5.4644918275689e-05
148.29833454018825,6.53497780894298e-05
148.40579710144928,7.776735164267959e-05
148.51341551849166,9.232237993862569e-05
148.6211901306241,0.00010906155342732044
148.72912127814087,0.00012802648720463162
148.8372093023256,0.000150969449002914
148.94545454545454,0.00018062276361173723
149.0538573508006,0.00021652595462320955
149.16241806263656,0.0002568169461349027
149.27113702623907,0.00030472726876709633
149.38001458789202,0.0003651472902547511
149.4890510948905,0.00043817224147498494
149.59824689554418,0.0005246205679620373
149.70760233918128,0.0006287259968573627
149.81711777615214,0.0007504861332864111
149.9267935578331,0.0008891972396983046
150.03663003663004,0.0010517638797111835
150.1466275659824,0.0012429523763471614
150.25678650036684,0.001458033218143436
150.36710719530103,0.0016938162827320902
150.47759000734754,0.0019525821024660738
150.58823529411762,0.0022363709368410653
150.69904341427517,0.0025471262791436156
150.8100147275405,0.002882322780646284
150.92114959469419,0.0032338006212123266
151.03244837758112,0.0036044411364783264
151.1439114391144,0.004008142299055128
151.25553914327915,0.004441478808880218
151.3673318551367,0.0048781171641241565
151.47928994082838,0.005302340861118274
151.59141376757958,0.005735737349719342
151.7037037037037,0.006204294863300143
151.81616011860638,0.00666140545367946
151.92878338278933,0.007008930310773462
152.04157386785448,0.007258150595911752
152.15453194650817,0.0075448641531038856
152.26765799256503,0.007859820438324184
152.38095238095235,0.007946161986110561
152.4944154877141,0.007676552468030924
152.6080476900149,0.007339540548730822
152.72184936614468,0.0072182099918727755
152.8358208955224,0.007013908511037236
152.9499626587005,0.006215559997375618
153.0642750373692,0.005094749060720464
153.1787584143605,0.004542904787351347
153.29341317365268,0.004564285634848736
153.40823970037454,0.004054895630783911
153.5232383808096,0.0028749521536836865
153.6384096024006,0.0026412543004484903
153.75375375375376,0.003999894055343434
153.86927122464311,0.004908465511059226
153.98496240601503,0.004043636895341565
154.10082768999246,0.004044104196646233
154.2168674698795,0.007556103861472545
154.33308214016577,0.011419496369374966
154.4494720965309,0.010405472655553779
154.56603773584905,0.0068520298524929035
154.68277945619334,0.008994574296910248
154.79969765684052,0.01685710755891964
154.91679273827532,0.019132464730371175
155.0340651021953,0.011062428663618397
155.15151515151516,0.005262285647304106
155.2691432903715,0.012837185035655367
155.38694992412746,0.023005603047625108
155.50493545937738,0.01849082297267901
155.62310030395136,0.0055831406411725355
155.74144486692012,0.007435016386493729
155.8599695585997,0.025793065961363496
155.97867479055597,0.03382806315384639
156.09756097560975,0.018667522030250766
156.21662852784135,0.00606459027810218
156.33587786259542,0.02023662065254469
156.45530939648586,0.04204931709711762
156.5749235474006,0.03839914803184642
156.69472073450652,0.015707772652746168
156.8147013782542,0.009178496167525058
156.93486590038313,0.02687227617823606
157.05521472392638,0.03885860231281128
157.17574827321565,0.02654244275705366
157.29646697388634,0.011068214514489225
157.4173712528824,0.01591760590719555
157.53846153846155,0.029310184475674305
157.65973826020013,0.028434167753417835
157.78120184899845,0.017561755704407565
157.9028527370856,0.01537905394007408
158.02469135802468,0.022147264232867937
158.14671814671814,0.023777757595712504
158.26893353941267,0.01798310502466684
158.39133797370457,0.015152101092516789
158.5139318885449,0.01773246295429519
158.63671572424477,0.017761113983736226
158.7596899224806,0.013551164665947234
158.88285492629947,0.012012098628103046
159.0062111801242,0.014666340924380478
159.12975912975912,0.015489306270545851
159.25349922239502,0.012841769190102563
159.37743190661476,0.01183968467787456
159.50155763239874,0.014011054263174567
159.62587685113016,0.014726547970594911
159.7503900156006,0.01237816216013419
159.87509758001562,0.010793889533271709
160.0,0.011381786138369914
160.12509773260362,0.011353762144693406
160.2503912363067,0.010047979217318793
160.37588097102582,0.0098415329536311
160.5015673981191,0.011095210692598214
160.62745098039213,0.011810593615811568
160.7535321821036,0.0116721882404138
160.87981146897093,0.012144813795431277
161.0062893081761,0.01331248480827549
161.13296616837135,0.01387251755378305
161.25984251968504,0.013740171301918128
161.38691883372735,0.0141962105339445
161.51419558359618,0.015501581361400944
161.64167324388316,0.016541146326755136
161.7693522906793,0.017168092364772167
161.89723320158103,0.0183474794796154
162.0253164556962,0.019735768563867682
162.15360253365006,0.02016763691833974
162.28209191759112,0.02003419681008283
162.41078509119745,0.020249711677958044
162.53968253968253,0.02042070137278126
162.66878474980143,0.020159482847631638
162.79809220985692,0.020083484575171215
162.92760540970565,0.020484432243055056
163.05732484076432,0.020938487320619516
163.18725099601593,0.021360014210664104
163.31738437001593,0.02205614111846371
163.44772545889865,0.023007827397587777
163.57827476038338,0.023941777340081995
163.709032773781,0.024824955220912617
163.84,0.025791269107979457
163.97117694155327,0.026779745421290146
164.1025641025641,0.027610643873595794
164.23416198877305,0.02827163532345432
164.3659711075441,0.028831959170932595
164.49799196787149,0.029244180043638126
164.63022508038586,0.02942653900594642
164.76267095736122,0.029375972037344215
164.89533011272144,0.029121218155125982
165.02820306204674,0.02864743551774956
165.16129032258064,0.027912512488520426
165.29459241323647,0.026926806419799568
165.4281098546042,0.025719589504746503
165.56184316895713,0.024284951876843434
165.6957928802589,0.02268460064952197
165.82995951417004,0.021034004150779082
165.9643435980551,0.01935169672920265
166.09894566098947,0.017640726698622107
166.23376623376623,0.015996120348011296
166.36880584890332,0.014458552102845426
166.5040650406504,0.01297842425197277
166.63954434499593,0.011571820701296729
166.77524429967426,0.010289934458134508
166.9111654441728,0.009119419727622362
167.047308319739,0.00805132829279301
167.18367346938777,0.007096732987913955
167.3202614379085,0.006242670019321587
167.45707277187245,0.005495451803527792
167.59410801963992,0.004855112299128238
167.7313677313677,0.004284443256580503
167.86885245901638,0.0037812810573735153
168.00656275635768,0.0033496992612716296
168.14449917898193,0.0029586155915430636
168.28266228430567,0.00261063486923135
168.42105263157896,0.002312784828539429
168.559670781893,0.0020362679380496354
168.6985172981878,0.0017850275867262546
168.83759274525966,0.0015727301554814797
168.97689768976898,0.001375579073162962
169.11643270024774,0.0011896790531569748
169.25619834710741,0.0010298145311810065
169.39619520264682,0.0008862494037511516
169.53642384105962,0.0007536383013006464
169.67688483844242,0.0006396200481679732
169.81757877280262,0.0005393348413813199
169.95850622406635,0.0004475147814959233
170.09966777408638,0.0003683827980251054
170.24106400665005,0.00030224268464012545
170.3826955074875,0.00024478924732138286
170.52456286427974,0.00019505419746482903
170.66666666666666,0.00015467468019523352
170.8090075062552,0.0001227531471849267
170.9515859766277,9.668171369157844e-05
171.09440267335003,7.568734486735724e-05
171.23745819397996,5.8367939435095584e-05
171.3807531380753,4.323888199301043e-05
171.52428810720266,3.200989269836103e-05
171.66806370494552,2.454539698137418e-05
171.81208053691276,1.809176197392692e-05
171.95633921074725,1.301839679049457e-05
172.10084033613444,9.850954946872721e-06
172.24558452481077,6.9533272768933515e-06
172.3905723905724,4.649776814086756e-06
172.5358045492839,3.5379405418986245e-06
172.681281618887,2.5298865041139817e-06
172.82700421940928,1.6225476916984005e-06
172.97297297297297,1.2614347003006217e-06
173.11918850380385,9.463475473613862e-07
173.26565143824024,6.120020358105165e-07
173.41236240474177,4.360358649942844e-07
173.55932203389833,2.835444655144846e-07
173.70653095843934,1.773486321035194e-07
173.85398981324278,1.3590313724820648e-07
174.0016992353441,1.0351161436487922e-07
174.14965986394557,9.692204214689709e-08
174.2978723404255,6.808018825201507e-08
174.44633730834755,2.2275199228739302e-08
174.59505541346974,1.638035773500654e-08
174.74402730375425,1.0724701288627144e-08
174.8932536293766,5.328291239667211e-09
175.04273504273505,3.986168667719382e-09
175.1924721984602,3.9693646342300146e-10
175.34246575342465,3.3564986112547238e-09
175.49271636675235,1.1218287519270257e-08
175.6432246998285,3.948853944344691e-09
175.79399141630904,3.427675544106023e-09
175.94501718213058,1.5240280215258454e-08
176.0963026655202,6.526072408479451e-09
176.24784853700515,3.476917400315288e-09
176.3996554694229,1.4213814900764382e-08
176.55172413793102,1.0549250172641477e-08
176.70405522001724,5.918821030378599e-09
176.85664939550952,5.148686820707068e-09
177.00950734658602,1.4504237649345648e-09
177.16262975778545,2.0415419180236448e-10
177.3160173160173,2.568855073410818e-09
177.46967071057193,1.2761758017561461e-09
177.62359063313096,1.4162420531798691e-09
177.77777777777777,6.079950078711066e-09
177.93223284100782,2.530759852740263e-09
178.08695652173913,2.026677001394941e-09
178.24194952132288,3.721712859985597e-09
178.397212543554,2.6484630920203974e-12
178.55274629468178,5.188369129268808e-09
178.70855148342056,4.460191449165292e-09
178.86462882096066,3.1032949064818368e-09
179.02097902097898,3.092434749990566e-09
179.17760279965006,2.3607787320628376e-09
179.33450087565674,1.3104764968587553e-08
179.4916739702016,4.414492537951261e-09
179.64912280701753,1.6004334424980458e-10
179.80684811237927,1.6810891724072446e-10
179.96485061511424,6.663438930227398e-09
180.12313104661388,5.197130070697513e-09
180.28169014084506,6.426644045175668e-10
180.44052863436124,5.915051924611551e-11
180.59964726631395,6.596701753643869e-09
180.75904677846424,1.081279422891479e-08
180.91872791519435,1.9165300644736075e-09
181.07869142351902,2.2367395302575816e-09
181.23893805309734,4.919368029497656e-09
181.39946855624444,1.8259938662347835e-10
181.56028368794324,3.814794660681795e-09
181.72138420585628,9.335152796760717e-10
181.88277087033748,7.321560777510372e-09
182.04444444444445,1.732572160257616e-08
182.20640569395016,3.233714212531899e-09
182.3686553873553,2.892485545435112e-09
182.53119429590015,6.031397095884591e-09
182.69402319357712,1.6629620658164459e-09
182.85714285714286,1.1740405075409957e-09
183.0205540661305,4.106269036845327e-09
183.18425760286226,6.172579245308941e-09
183.34825425246197,2.328164018842521e-09
183.51254480286738,4.1748149051932036e-09
183.67713004484304,9.022977430339976e-09
183.84201077199282,8.176933902390529e-09
184.00718778077265,3.700880015239928e-09
184.1726618705036,2.6674893791165814e-09
184.33843384338437,1.9396826701802685e-09
184.5045045045045,5.417600323650458e-09
184.67087466185754,1.6319582866853382e-09
184.83754512635377,8.740046651786373e-10
185.0045167118338,6.337024880301961e-10
185.17179023508135,2.797711265401134e-09
185.33936651583707,8.125725549609748e-09
185.5072463768116,1.789328473965346e-09
185.675430643699,8.29333577515587e-10
185.84392014519057,1.594312083888919e-09
186.01271571298818,5.240413767700775e-10
186.1818181818182,1.9853683278786634e-09
186.3512283894449,2.1296769083106653e-09
186.52094717668484,1.2610741744325902e-09
186.69097538742025,4.490221824490601e-09
186.86131386861314,2.2880625437468893e-09
187.03196347031962,8.884986018348703e-11
187.20292504570384,8.003160268394563e-10
187.37419945105214,1.5642552323163894e-09
187.54578754578753,7.178892275648914e-09
187.71769019248396,1.6838593835711457e-08
187.88990825688072,1.3954085104258729e-08
188.06244260789717,2.745673988939431e-09
188.23529411764707,5.628292663542123e-12
188.40846366145354,1.63605909879984e-10
188.5819521178637,1.0384292647030604e-09
188.75576036866357,4.706920405450346e-10
188.92988929889296,3.426889026112689e-09
189.10433979686056,8.104569181592973e-10
189.27911275415894,2.6238683567831117e-09
189.45420906567992,2.1451965385121497e-09
189.62962962962962,3.888370414280953e-09
189.80537534754404,1.068248619768813e-08
189.98144712430428,2.938575896053553e-09
190.15784586815226,4.3347275797145515e-09
190.3345724907063,1.3773239435457634e-10
190.51162790697674,5.45691537377566e-09
190.68901303538178,3.6560547204738636e-09
190.8667287977633,3.0125075744833164e-10
191.044776119403,1.708080952599286e-09
191.22315592903828,2.5563185830724333e-09
191.4018691588785,3.1218863692118684e-10
191.5809167446211,1.0962803477498299e-08
191.76029962546815,1.2933513968291217e-08
191.94001874414244,1.0538827036735677e-08
192.12007504690433,7.124452747178411e-09
192.3004694835681,2.0113634044289013e-10
192.48120300751881,4.429655677497939e-09
192.66227657572907,2.8771846304759406e-09
192.8436911487759,1.2984817313991036e-10
193.02544769085767,5.959604505451542e-10
193.2075471698113,5.881211923190506e-10
193.38999055712932,1.0026032423352905e-09
193.57277882797732,1.9698474760046607e-09
193.75591296121098,7.286880367558127e-09
193.93939393939394,6.260245990033546e-09
194.12322274881518,4.449024415166213e-09
194.30740037950665,1.3463988281295632e-10
194.49192782526114,1.2722702379683475e-09
194.67680608365018,5.709321557695499e-09
194.86203615604185,1.5184429102972406e-08
195.04761904761907,2.2860285865232585e-09
195.23355576739752,2.602739513795051e-09
195.4198473282443,1.7504416130825696e-09
195.6064947468959,5.585584771941923e-09
195.79349904397705,4.260685394170984e-09
195.9808612440191,1.6854872134910886e-09
196.1685823754789,3.5772350602498498e-09
196.35666347075744,8.553594299839254e-09
196.5451055662188,9.47251499134721e-09
196.73390970220942,3.427924611873131e-09
196.92307692307693,6.813249901139795e-10
197.1126082771896,1.4295066174742677e-09
197.30250481695566,9.919411804371847e-10
197.4927675988428,2.08914037372162e-09
197.68339768339766,4.87567745674411e-09
197.8743961352657,9.928832876815903e-10
198.06576402321085,1.2112585424648763e-09
198.25750242013552,6.177402552198449e-10
198.44961240310076,3.0286926124542843e-10
198.64209505334625,4.461254680455076e-10
198.83495145631065,1.2841546464194962e-09
199.02818270165207,4.762838506619972e-09
199.22178988326846,4.520779610070684e-09
199.4157740993184,4.451216671191829e-10
199.61013645224173,1.4678700209720792e-09
199.8048780487805,7.613241940323094e-10
200.0,1.9235451041394413e-10
200.19550342130987,1.0578007642473471e-09
200.3913894324853,2.9562602613523546e-10
200.58765915768853,1.8662935967543953e-10
200.78431372549022,1.415098786776327e-09
200.9813542688911,3.23778724727142e-09
201.17878192534383,4.730743824467895e-10
201.37659783677483,1.0886112773777036e-09
201.5748031496063,3.423497393998298e-09
201.77339901477833,3.9842414718436715e-09
201.9723865877712,2.540725778926541e-09
202.1717670286278,1.9657202178929897e-09
202.3715415019763,2.7628200503896014e-09
202.57171117705244,3.747613619161022e-09
202.77227722772278,7.993167674936068e-09
