"Wavelength, nm",Intensity
136.44237175216523,1.2258128803453193e-26
136.53333333333333,1.1821377584807581e-26
136.62441627751835,1.3776518801476054e-26
136.71562082777035,1.3518073432017353e-26
136.80694722778892,1.759820343982857e-26
136.89839572192514,1.757173915345246e-26
136.98996655518394,2.5791054312060396e-26
137.08165997322624,2.204214950972722e-26
137.17347622237108,9.365353331675322e-26
137.26541554959786,3.097638997331987e-25
137.35747820254863,2.7808163947293355e-24
137.4496644295302,1.3519176302003183e-23
137.54197447951645,2.3871265845809148e-23
137.63440860215053,4.252055613757014e-23
137.72696704774717,1.0524968377113181e-22
137.81965006729476,9.846610566517676e-22
137.9124579124579,6.510496767333693e-21
138.0053908355795,3.1273905781620586e-20
138.09844908968307,1.3001613674666365e-19
138.19163292847506,4.1317261362143393e-19
138.28494260634707,9.04831256087387e-19
138.37837837837836,1.384922729155742e-18
138.47194050033806,1.786853902280617e-18
138.5656292286874,2.848142847887959e-18
138.65944482058225,5.878011480772899e-18
138.75338753387533,1.1460230883538314e-17
138.84745762711862,1.813383823606384e-17
138.94165535956583,2.4337955156771104e-17
139.03598099117448,3.2646463977831775e-17
139.1304347826087,4.523432548956361e-17
139.22501699524133,5.784852085487335e-17
139.31972789115645,7.159015977115503e-17
139.4145677331518,9.75189803701638e-17
139.50953678474113,1.4030056668744068e-16
139.60463531015677,1.9093967849107072e-16
139.69986357435198,2.3659872835193455e-16
139.79522184300342,2.747726707275931e-16
139.89071038251367,3.184683428777294e-16
139.98632946001365,3.8519634242921955e-16
140.08207934336525,4.756256139640318e-16
140.17796030116358,5.514606900015687e-16
140.27397260273972,5.468628396009792e-16
140.37011651816314,4.357899070532669e-16
140.46639231824417,2.646201370636088e-16
140.56280027453673,1.0248270360746733e-16
140.65934065934067,1.717967544272186e-17
140.75601374570448,1.2671893100311613e-16
140.85281980742778,5.72621629274027e-16
140.949759119064,1.277829754712341e-15
141.04683195592284,2.008214295332387e-15
141.14403859407307,2.9395586178970126e-15
141.24137931034483,4.784052035774208e-15
141.33885438233264,8.473754233853983e-15
141.4364640883978,1.4719966714164852e-14
141.53420870767104,2.338380832378021e-14
141.6320885200553,3.331801553463743e-14
141.73010380622836,4.4940575874009396e-14
141.8282548476454,6.656723053384264e-14
141.92654192654192,1.1437332548378837e-13
142.0249653259362,2.0354049508851565e-13
142.1235253296322,3.421963953708228e-13
142.22222222222223,5.31640925958365e-13
142.32105628908963,7.946320267349432e-13
142.42002781641168,1.2105287166738717e-12
142.51913709116212,1.8957545347268698e-12
142.6183844011142,2.997062926436865e-12
142.7177700348432,4.687813720382369e-12
142.81729428172943,7.113313447596073e-12
142.91695743196092,1.0409363624734226e-11
143.0167597765363,1.4788653732860347e-11
143.11670160726763,2.0638480964659718e-11
143.21678321678323,2.83962669185777e-11
143.31700489853043,3.8523970239196946e-11
143.4173669467787,5.2025984916317035e-11
143.5178696566223,7.016537379700422e-11
143.61851332398317,9.401273216621673e-11
143.71929824561403,1.246539363067012e-10
143.8202247191011,1.6248340974863448e-10
143.92129304286718,2.075893212987525e-10
144.0225035161744,2.6021882803724275e-10
144.12385643912737,3.2021373196095737e-10
144.22535211267606,3.889241371994625e-10
144.32699083861874,4.723880631863907e-10
144.42877291960508,5.863672506288868e-10
144.530698659139,7.549320459226214e-10
144.6327683615819,1.0061636814325728e-09
144.73498233215545,1.3847806836359942e-09
144.83734087694484,1.961670053565562e-09
144.9398443029016,2.8300528823946727e-09
145.04249291784703,4.100522491732162e-09
145.14528703047483,5.92801268674971e-09
145.24822695035462,8.550451547134006e-09
145.35131298793468,1.218786873511918e-08
145.45454545454544,1.7003461784378173e-08
145.55792466240226,2.3325985674607614e-08
145.66145092460883,3.152981696098797e-08
145.76512455516016,4.160859272773154e-08
145.86894586894587,5.354701169881043e-08
145.9729151817534,6.778543076626574e-08
146.07703281027102,8.399386155746795e-08
146.18129907209135,1.0066306515547825e-07
146.28571428571428,1.175406238767688e-07
146.39027877055037,1.3457690910867482e-07
146.49499284692416,1.4831524883052056e-07
146.59985683607732,1.563208948330922e-07
146.7048710601719,1.6015645849912006e-07
146.8100358422939,1.5709448563756393e-07
146.91535150645623,1.4184417038716342e-07
147.0208183776023,1.1803915235087391e-07
147.1264367816092,9.064243258677101e-08
147.23220704529115,5.802775195264403e-08
147.33812949640287,2.620487327816082e-08
147.4442044636429,8.77839253775654e-09
147.55043227665706,1.843774025026673e-08
147.6568132660418,7.855485798931062e-08
147.76334776334778,2.029388597940501e-07
147.87003610108303,3.7523855870327253e-07
147.97687861271675,6.220996536825666e-07
148.08387563268258,1.0435087610576924e-06
148.19102749638205,1.6862679583716633e-06
148.29833454018825,2.474156319180177e-06
148.40579710144928,3.331798337855024e-06
148.51341551849166,4.319564110359012e-06
148.6211901306241,5.561811848476069e-06
148.72912127814087,7.001162858377861e-06
148.8372093023256,8.39941789922991e-06
148.94545454545454,9.769240467225392e-06
149.0538573508006,1.144245486032701e-05
149.16241806263656,1.3427909941125023e-05
149.27113702623907,1.5361138116839784e-05
149.38001458789202,1.732077458795761e-05
149.4890510948905,1.971385174685606e-05
149.59824689554418,2.2468637682699043e-05
149.70760233918128,2.5493564653735642e-05
149.81711777615214,2.9194068499957644e-05
149.9267935578331,3.371602886907064e-05
150.03663003663004,3.9238346710958655e-05
150.1466275659824,4.698101390121285e-05
150.25678650036684,5.770058374848935e-05
150.36710719530103,7.04134569811139e-05
150.47759000734754,8.493267738472434e-05
150.58823529411762,0.0001030331503904376
150.69904341427517,0.00012540185970465995
150.8100147275405,0.0001511102405828115
150.92114959469419,0.00018024958129153127
151.03244837758112,0.00021350361000323787
151.1439114391144,0.0002508215581928712
151.25553914327915,0.00029214782783524033
151.3673318551367,0.0003369547811405417
151.47928994082838,0.0003846561890839771
151.59141376757958,0.000436898834536084
151.7037037037037,0.0004961720224640845
151.81616011860638,0.0005635531150880868
151.92878338278933,0.0006380383725435938
152.04157386785448,0.000714786894610866
152.15453194650817,0.0007930871692489769
152.26765799256503,0.0008856713505044937
152.38095238095235,0.0009963737855936468
152.4944154877141,0.0010990388782190959
152.6080476900149,0.001178225401049188
152.72184936614468,0.0012694752810567392
152.8358208955224,0.0014027838164664872
152.9499626587005,0.0015252177739931284
153.0642750373692,0.0015604053666844026
153.1787584143605,0.001558539856311889
153.29341317365268,0.001666819397386234
153.40823970037454,0.001866807413295986
153.5232383808096,0.0019298552909472637
153.6384096024006,0.0018429823579297535
153.75375375375376,0.0020192186426775593
153.86927122464311,0.0026839263165214476
153.98496240601503,0.003331086928907434
154.10082768999246,0.0034856358414491946
154.2168674698795,0.003864854388220346
154.33308214016577,0.0056469444342269895
154.4494720965309,0.008257278692044099
154.56603773584905,0.009496011198888071
154.68277945619334,0.009131427228278116
154.79969765684052,0.010499792885773943
154.91679273827532,0.015782205854535276
155.0340651021953,0.02105379552231008
155.15151515151516,0.020559505419855892
155.2691432903715,0.016320125360831227
155.38694992412746,0.017383128747724488
155.50493545937738,0.025950356816297315
155.62310030395136,0.031162053520122867
155.74144486692012,0.024161033458346474
155.8599695585997,0.013201087254320013
155.97867479055597,0.01323694765303913
156.09756097560975,0.02347434474547882
156.21662852784135,0.027169924087710625
156.33587786259542,0.016419873591769992
156.45530939648586,0.005685690887260147
156.5749235474006,0.010596345837959206
156.69472073450652,0.022332391022719177
156.8147013782542,0.02107222797700838
156.93486590038313,0.008850697396545475
157.05521472392638,0.005341961683346848
157.17574827321565,0.0149367233651517
157.29646697388634,0.02172051633067084
157.4173712528824,0.01568955219753337
157.53846153846155,0.006524009669544613
157.65973826020013,0.007514779002048259
157.78120184899845,0.01499582258105016
157.9028527370856,0.01506866074367912
158.02469135802468,0.007599637994718518
158.14671814671814,0.004930729208146641
158.26893353941267,0.008768676924335203
158.39133797370457,0.009885772209739272
158.5139318885449,0.0066421840786888755
158.63671572424477,0.005664161562712593
158.7596899224806,0.00861296857068221
158.88285492629947,0.010319781540575482
159.0062111801242,0.008427545056942968
159.12975912975912,0.006880796372015268
159.25349922239502,0.008103117731916824
159.37743190661476,0.008728385363502029
159.50155763239874,0.006710504761630177
159.62587685113016,0.005406573482654956
159.7503900156006,0.006901168291119781
159.87509758001562,0.008409527249343513
160.0,0.00819456575778365
160.12509773260362,0.008502705452299062
160.2503912363067,0.010298707979489634
160.37588097102582,0.011180327195067872
160.5015673981191,0.010170576521361437
160.62745098039213,0.009317236065303706
160.7535321821036,0.009716547667365393
160.87981146897093,0.010002471911554555
161.0062893081761,0.009546854732048922
161.13296616837135,0.009850166923378794
161.25984251968504,0.011415079996414109
161.38691883372735,0.012455706715982114
161.51419558359618,0.012277837896791488
161.64167324388316,0.012392152872817237
161.7693522906793,0.01309936258560745
161.89723320158103,0.01307733232204696
162.0253164556962,0.012694824536765133
162.15360253365006,0.01344381067051478
162.28209191759112,0.014933421663585363
162.41078509119745,0.01618687593650153
162.53968253968253,0.01773442462186168
162.66878474980143,0.01984620275475346
162.79809220985692,0.02161740653419957
162.92760540970565,0.0227316941556428
163.05732484076432,0.023545869445649365
163.18725099601593,0.02396748071829678
163.31738437001593,0.023802163535156982
163.44772545889865,0.02326039500851226
163.57827476038338,0.02260896916728539
163.709032773781,0.02189083974277101
163.84,0.021044814943887744
163.97117694155327,0.020109140007311642
164.1025641025641,0.019148992477223008
164.23416198877305,0.0180825116100063
164.3659711075441,0.01682951670528908
164.49799196787149,0.015449327106998707
164.63022508038586,0.014009826872225429
164.76267095736122,0.01253875513954137
164.89533011272144,0.011085973310678305
165.02820306204674,0.009717632931409415
165.16129032258064,0.00847882253005159
165.29459241323647,0.0073664351813035
165.4281098546042,0.006359080288779778
165.56184316895713,0.0054681442675291805
165.6957928802589,0.004703808012104658
165.82995951417004,0.0040351987948092785
165.9643435980551,0.0034290355264265607
166.09894566098947,0.002887682479692793
166.23376623376623,0.0024268492384258446
166.36880584890332,0.002036503859973318
166.5040650406504,0.0016959460699712498
166.63954434499593,0.0014077419249682646
166.77524429967426,0.0011759206296273318
166.9111654441728,0.0009856334615054526
167.047308319739,0.0008243804181522607
167.18367346938777,0.0006882946097757502
167.3202614379085,0.0005742669578769295
167.45707277187245,0.0004786506560927989
167.59410801963992,0.00039602956129780457
167.7313677313677,0.00032538850640965864
167.86885245901638,0.00026886638754344025
168.00656275635768,0.00022217724014874873
168.14449917898193,0.00018123038613683567
168.28266228430567,0.0001470980870871285
168.42105263157896,0.00011930136125985848
168.559670781893,9.642713625228597e-05
168.6985172981878,7.783995307573494e-05
168.83759274525966,6.222316328915178e-05
168.97689768976898,4.9338280062612195e-05
169.11643270024774,3.908781055097477e-05
169.25619834710741,3.0561935360239655e-05
169.39619520264682,2.3782254189185905e-05
169.53642384105962,1.8461956114921954e-05
169.67688483844242,1.4066880695581636e-05
169.81757877280262,1.1037470164204915e-05
169.95850622406635,8.842975983445684e-06
170.09966777408638,6.572539104413813e-06
170.24106400665005,4.849914698615284e-06
170.3826955074875,3.841723304932377e-06
170.52456286427974,2.88037445638422e-06
170.66666666666666,2.032630766156741e-06
170.8090075062552,1.3849373298451604e-06
170.9515859766277,8.893561428792668e-07
171.09440267335003,7.070084555562777e-07
171.23745819397996,6.013086204511071e-07
171.3807531380753,3.780437531216029e-07
171.52428810720266,2.67942337161713e-07
171.66806370494552,2.2422547811416847e-07
171.81208053691276,1.313543393205681e-07
171.95633921074725,1.436999896977322e-07
172.10084033613444,1.4260960985034378e-07
172.24558452481077,5.044018559144151e-08
172.3905723905724,2.801615217853138e-08
172.5358045492839,3.4526695174646104e-08
172.681281618887,8.897606484168008e-09
172.82700421940928,9.21107436709947e-09
172.97297297297297,3.3642981896998616e-08
173.11918850380385,2.2281839185439152e-08
173.26565143824024,1.0689352495453144e-08
173.41236240474177,3.2365208923598317e-09
173.55932203389833,2.9032676634127747e-09
173.70653095843934,6.541389800441299e-09
173.85398981324278,1.4443287574757258e-09
174.0016992353441,1.4898847395943347e-10
174.14965986394557,1.2624619377322382e-09
174.2978723404255,3.020623313736762e-09
174.44633730834755,2.0521049605232689e-10
174.59505541346974,5.473199184650021e-09
174.74402730375425,1.1245431320476572e-08
174.8932536293766,5.864290036436196e-09
175.04273504273505,3.327573869563205e-09
175.1924721984602,7.695009168020564e-09
175.34246575342465,6.0064083674244385e-09
175.49271636675235,1.5462681414598022e-09
175.6432246998285,1.1107702263330914e-10
175.79399141630904,1.7246359509500154e-09
175.94501718213058,3.0831788572284408e-09
176.0963026655202,1.9049214488562165e-09
176.24784853700515,9.239070489550992e-09
176.3996554694229,1.0794595368328608e-08
176.55172413793102,4.478568223181912e-09
176.70405522001724,1.7281213705675852e-09
176.85664939550952,1.8327270280370404e-09
177.00950734658602,7.269866686591314e-10
177.16262975778545,7.320203932913114e-10
177.3160173160173,2.5211997851343486e-10
177.46967071057193,5.4240108434763165e-09
177.62359063313096,9.805027015607609e-09
177.77777777777777,5.147241428475074e-09
177.93223284100782,6.37976334757844e-10
178.08695652173913,9.735048958472357e-11
178.24194952132288,2.9055156752473522e-09
178.397212543554,7.390943004023649e-09
178.55274629468178,1.110030811126445e-08
178.70855148342056,7.866246206324236e-09
178.86462882096066,3.919224618704886e-09
179.02097902097898,1.470294850403146e-09
179.17760279965006,1.7917326946849866e-09
179.33450087565674,4.820262851260886e-09
179.4916739702016,3.966326633247141e-09
179.64912280701753,1.5942141859814024e-09
179.80684811237927,4.116857203138188e-09
179.96485061511424,1.5348675804294272e-09
180.12313104661388,5.872595896232502e-10
180.28169014084506,7.953688423526574e-10
180.44052863436124,1.6817977527038382e-09
180.59964726631395,2.562292643086944e-09
180.75904677846424,7.608218405069148e-09
180.91872791519435,7.634142160063202e-09
181.07869142351902,4.67309726346447e-10
181.23893805309734,8.105155662973761e-10
181.39946855624444,9.132284579142331e-10
181.56028368794324,3.3254744053385784e-10
181.72138420585628,3.6649673407327072e-09
181.88277087033748,5.4674298173761356e-09
182.04444444444445,3.0297695617204282e-09
182.20640569395016,3.172920637942052e-10
182.3686553873553,6.312003945162944e-09
182.53119429590015,6.332079122800306e-09
182.69402319357712,3.181432382287555e-09
182.85714285714286,1.2333571954503368e-09
183.0205540661305,2.8227307574569963e-11
183.18425760286226,3.515610820759927e-10
183.34825425246197,1.9031179586386602e-10
183.51254480286738,3.832398862931794e-09
183.67713004484304,3.065585747082169e-09
183.84201077199282,1.251820545600638e-09
184.00718778077265,4.763659735868855e-09
184.1726618705036,4.391707118192824e-09
184.33843384338437,1.1437891986368007e-08
184.5045045045045,3.6124898364032077e-09
184.67087466185754,5.433652333643153e-09
184.83754512635377,3.471925042897675e-09
185.0045167118338,9.85059912788783e-10
185.17179023508135,2.648282421321912e-09
185.33936651583707,2.55876160278153e-10
185.5072463768116,3.1585621268633436e-09
185.675430643699,1.0676173767972952e-09
185.84392014519057,2.94260013901113e-11
186.01271571298818,1.2624027512601236e-09
186.1818181818182,3.18223170388938e-09
186.3512283894449,9.808541020308434e-10
186.52094717668484,5.486597255320634e-10
186.69097538742025,2.0143318422338586e-10
186.86131386861314,6.357009700240361e-10
187.03196347031962,1.215591467437811e-09
187.20292504570384,7.570700538879177e-11
187.37419945105214,3.490837108380036e-09
187.54578754578753,8.390084284441487e-09
187.71769019248396,7.423540144337948e-09
187.88990825688072,3.3644977055829896e-09
188.06244260789717,9.167977339508791e-10
188.23529411764707,8.901021428227482e-10
188.40846366145354,3.5102194532796116e-09
188.5819521178637,4.267832796674594e-09
188.75576036866357,1.2236452014955663e-09
188.92988929889296,2.680634396914837e-10
189.10433979686056,5.822809696873734e-10
189.27911275415894,1.0565232043990923e-09
189.45420906567992,5.86954202158375e-10
189.62962962962962,1.3921891772274525e-09
189.80537534754404,3.9018131149416626e-10
189.98144712430428,1.1356538629453769e-09
190.15784586815226,4.120293548385895e-09
190.3345724907063,2.1149368333501666e-09
190.51162790697674,2.771094616044225e-10
190.68901303538178,1.3206055626125976e-09
190.8667287977633,3.0267645919851094e-09
191.044776119403,4.50346538689868e-09
191.22315592903828,1.2861805414120655e-09
191.4018691588785,9.891652320647301e-10
191.5809167446211,3.987449384111761e-09
191.76029962546815,8.852850368076867e-10
191.94001874414244,3.1746944960618958e-09
192.12007504690433,1.1257257080061722e-08
192.3004694835681,6.578095744139937e-09
192.48120300751881,3.3755369833805874e-09
192.66227657572907,9.855798717075598e-10
192.8436911487759,2.0189706458212482e-10
193.02544769085767,1.380192051663337e-09
193.2075471698113,1.27697639726344e-09
193.38999055712932,4.0104739066910455e-09
193.57277882797732,6.094599963265994e-09
193.75591296121098,1.6120818639455417e-10
193.93939393939394,4.736956339424751e-09
194.12322274881518,5.342715249640127e-09
194.30740037950665,9.44737255791923e-09
194.49192782526114,1.7582085207860363e-09
194.67680608365018,3.384697208048215e-09
194.86203615604185,8.939718366115795e-10
195.04761904761907,6.257335297243029e-09
195.23355576739752,6.80720784241108e-09
195.4198473282443,5.023252533380369e-10
195.6064947468959,5.958287850539175e-09
195.79349904397705,2.0180328470916677e-09
195.9808612440191,1.142127023826718e-09
196.1685823754789,1.2553712883754761e-09
196.35666347075744,6.346761599253316e-10
196.5451055662188,2.1838302850700034e-10
196.73390970220942,1.2400258497757179e-09
196.92307692307693,1.939544689471963e-09
197.1126082771896,1.0697688669842018e-10
197.30250481695566,2.411044642290769e-09
197.4927675988428,5.412692027219316e-09
197.68339768339766,1.7331212467694247e-09
197.8743961352657,1.0488393473305532e-09
198.06576402321085,1.8858790380819617e-09
198.25750242013552,3.000790588313689e-10
198.44961240310076,7.855740354175272e-10
198.64209505334625,3.1841496051994053e-09
198.83495145631065,3.9225306367856e-09
199.02818270165207,9.873354925309899e-10
199.22178988326846,4.224277719614354e-10
199.4157740993184,1.1063289529918801e-09
199.61013645224173,2.67254725341714e-09
199.8048780487805,9.72040908884413e-10
200.0,7.1250424088346814e-09
200.19550342130987,7.955051599586553e-10
200.3913894324853,5.8416083706536936e-09
200.58765915768853,8.31235892711627e-09
200.78431372549022,9.123761989490157e-10
200.9813542688911,3.1419393257476313e-09
201.17878192534383,1.0692618861396583e-09
201.37659783677483,1.7293776009642695e-10
201.5748031496063,1.3810450092544673e-09
201.77339901477833,1.588843431331087e-09
201.9723865877712,1.0683653331800417e-09
202.1717670286278,7.57283083763659e-09
202.3715415019763,4.011093948257054e-09
202.57171117705244,1.7197384276876192e-09
