"Wavelength, nm",Intensity
136.44237175216523,2.4108070459454075e-25
136.53333333333333,2.429464956636019e-25
136.62441627751835,2.8901453164524857e-25
136.71562082777035,3.616730529124535e-25
136.80694722778892,4.0689894620884448e-25
136.89839572192514,4.6329401758709495e-25
136.98996655518394,5.673632490381818e-25
137.08165997322624,6.916347769893783e-25
137.17347622237108,7.105998914232624e-25
137.26541554959786,1.1225021493474359e-24
137.35747820254863,3.349790480007082e-24
137.4496644295302,2.2437886301084304e-23
137.54197447951645,4.44550513549017e-22
137.63440860215053,2.6438431557740217e-21
137.72696704774717,8.672729975915536e-21
137.81965006729476,2.0325758924719055e-20
137.9124579124579,3.615038213189612e-20
138.0053908355795,5.38404168292409e-20
138.09844908968307,9.308387281255508e-20
138.19163292847506,2.0962101405276138e-19
138.28494260634707,3.980458964345897e-19
138.37837837837836,5.44093756107099e-19
138.47194050033806,1.422839165443603e-18
138.5656292286874,6.386625067029192e-18
138.65944482058225,1.9511623348724637e-17
138.75338753387533,3.9246200450536024e-17
138.84745762711862,5.763718540047618e-17
138.94165535956583,6.834882467903137e-17
139.03598099117448,7.290541968287189e-17
139.1304347826087,8.106532725193127e-17
139.22501699524133,9.98003917800634e-17
139.31972789115645,1.18800954106497e-16
139.4145677331518,1.180711559076493e-16
139.50953678474113,1.0163660738427791e-16
139.60463531015677,1.0587159532005965e-16
139.69986357435198,1.3563100790852364e-16
139.79522184300342,1.3532958740772834e-16
139.89071038251367,8.501488511557489e-17
139.98632946001365,3.841685617696009e-17
140.08207934336525,2.0167890687537658e-17
140.17796030116358,9.764568425579066e-18
140.27397260273972,1.4351525735866328e-17
140.37011651816314,3.1666305926830747e-17
140.46639231824417,3.0481765064475285e-17
140.56280027453673,1.2354368939897149e-17
140.65934065934067,1.0833966424263151e-18
140.75601374570448,3.224442677999667e-18
140.85281980742778,1.189979941414455e-17
140.949759119064,2.308678978371e-17
141.04683195592284,3.785673286447424e-17
141.14403859407307,8.490507325409677e-17
141.24137931034483,2.2668331550115413e-16
141.33885438233264,4.068726312234492e-16
141.4364640883978,4.511484204261195e-16
141.53420870767104,3.232982702794249e-16
141.6320885200553,1.3312564335783991e-16
141.73010380622836,7.010501928586048e-18
141.8282548476454,1.133563001365282e-16
141.92654192654192,6.175386852810673e-16
142.0249653259362,1.4661678220563394e-15
142.1235253296322,2.30152968912841e-15
142.22222222222223,2.7581873936245765e-15
142.32105628908963,2.841780129657096e-15
142.42002781641168,2.706092255669236e-15
142.51913709116212,2.3462721817952164e-15
142.6183844011142,2.065912575909243e-15
142.7177700348432,2.315101149726397e-15
142.81729428172943,2.529471583032546e-15
142.91695743196092,2.292690662179949e-15
143.0167597765363,2.015539877192692e-15
143.11670160726763,2.132230595393595e-15
143.21678321678323,2.7073414475130912e-15
143.31700489853043,2.393104111317534e-15
143.4173669467787,8.766058009421394e-16
143.5178696566223,1.1257398888931949e-15
143.61851332398317,3.5275832086104277e-15
143.71929824561403,6.271809810444571e-15
143.8202247191011,1.1316962016849987e-14
143.92129304286718,2.477651866741356e-14
144.0225035161744,4.4589701458268516e-14
144.12385643912737,5.3000815353853076e-14
144.22535211267606,4.383386970535833e-14
144.32699083861874,2.2043445272244795e-14
144.42877291960508,9.989174397957018e-15
144.530698659139,1.3657547414152607e-14
144.6327683615819,2.959542465499866e-14
144.73498233215545,2.5738487070724747e-14
144.83734087694484,2.189384807517772e-15
144.9398443029016,3.786875844076448e-15
145.04249291784703,2.479226709595904e-14
145.14528703047483,7.126860518992993e-14
145.24822695035462,1.3619438443438532e-14
145.35131298793468,1.5065473692807433e-13
145.45454545454544,1.0733432607600565e-13
145.55792466240226,6.91732131160076e-14
145.66145092460883,3.54109948729782e-13
145.76512455516016,4.84750149092479e-14
145.86894586894587,3.449452458778233e-13
145.9729151817534,7.436059795217279e-13
146.07703281027102,4.632593757277826e-13
146.18129907209135,6.316518784674411e-13
146.28571428571428,1.3075404190216383e-12
146.39027877055037,2.0673790225765553e-12
146.49499284692416,4.374829895733706e-12
146.59985683607732,2.4057523757155004e-12
146.7048710601719,8.216820824483867e-13
146.8100358422939,1.3309388218495391e-11
146.91535150645623,7.462642232047104e-11
147.0208183776023,1.6614437143515325e-10
147.1264367816092,2.0815593167319132e-10
147.23220704529115,2.2975173443178729e-10
147.33812949640287,4.388254694073333e-10
147.4442044636429,1.0369913784958013e-09
147.55043227665706,1.7637114096754945e-09
147.6568132660418,2.0151476709396976e-09
147.76334776334778,1.771946135660561e-09
147.87003610108303,1.940884236165179e-09
147.97687861271675,3.7025138108445167e-09
148.08387563268258,6.3946929963948385e-09
148.19102749638205,7.1220851361477355e-09
148.29833454018825,4.445840621544179e-09
148.40579710144928,8.083742996301173e-10
148.51341551849166,1.141128702199349e-09
148.6211901306241,3.832539428713642e-09
148.72912127814087,2.679568764467578e-09
148.8372093023256,2.2944549669967707e-09
148.94545454545454,9.126272964294841e-09
149.0538573508006,1.4816054940674318e-08
149.16241806263656,9.558927033476687e-09
149.27113702623907,6.804714171468818e-10
149.38001458789202,4.223436868249528e-09
149.4890510948905,1.5207581573549006e-08
149.59824689554418,1.0689742785985318e-08
149.70760233918128,1.9358318111682594e-10
149.81711777615214,6.130028761689724e-09
149.9267935578331,1.0354678083597355e-08
150.03663003663004,2.796352437838318e-09
150.1466275659824,3.065453534629999e-10
150.25678650036684,7.597912185303309e-10
150.36710719530103,1.7966540107121398e-10
150.47759000734754,3.321860694291508e-09
150.58823529411762,4.775991895708414e-09
150.69904341427517,3.4453081799704235e-09
150.8100147275405,3.636482323774397e-09
150.92114959469419,2.4143004668113458e-09
151.03244837758112,5.827710396141771e-10
151.1439114391144,9.379931580213846e-10
151.25553914327915,1.6409954330932863e-09
151.3673318551367,1.73055701170266e-09
151.47928994082838,9.578342998441355e-10
151.59141376757958,8.614903705282366e-10
151.7037037037037,4.98203343243549e-10
151.81616011860638,1.2701473092851e-09
151.92878338278933,6.071719767411821e-09
152.04157386785448,8.79991054698946e-09
152.15453194650817,7.407762363683768e-09
152.26765799256503,6.159203134575917e-09
152.38095238095235,5.594571678027173e-09
152.4944154877141,2.8575102973012175e-09
152.6080476900149,3.251447779092229e-09
152.72184936614468,9.67441906520216e-09
152.8358208955224,6.26060684095636e-09
152.9499626587005,6.179897789104642e-11
153.0642750373692,4.923569309372103e-09
153.1787584143605,6.6213230566547935e-09
153.29341317365268,1.112037791537245e-08
153.40823970037454,1.0980553632237673e-08
153.5232383808096,2.1517018355525478e-10
153.6384096024006,9.88336287695513e-09
153.75375375375376,1.7059007337018597e-08
153.86927122464311,6.057448795621461e-09
153.98496240601503,2.28522186133397e-09
154.10082768999246,1.179709339913065e-09
154.2168674698795,8.750839545386926e-11
154.33308214016577,2.1349782005687634e-09
154.4494720965309,7.195075685418815e-09
154.56603773584905,6.0920590791571974e-09
154.68277945619334,2.5012306656615375e-10
154.79969765684052,2.47759629721538e-09
154.91679273827532,4.580653805606116e-09
155.0340651021953,5.6282616258359465e-09
155.15151515151516,1.431349960479206e-08
155.2691432903715,4.431537788438841e-08
155.38694992412746,7.90303655976477e-08
155.50493545937738,9.319568633505198e-08
155.62310030395136,1.5282710606345064e-07
155.74144486692012,3.7918298401717974e-07
155.8599695585997,8.591901368078889e-07
155.97867479055597,1.6679098311897033e-06
156.09756097560975,3.0329343460472463e-06
156.21662852784135,5.121620642443191e-06
156.33587786259542,7.737941545341832e-06
156.45530939648586,1.1614946473675055e-05
156.5749235474006,2.089581661260294e-05
156.69472073450652,4.199845961619968e-05
156.8147013782542,7.54421033928698e-05
156.93486590038313,0.0001083832490686422
157.05521472392638,0.0001200393681309158
157.17574827321565,0.00010542611174285243
157.29646697388634,0.00012020988706818914
157.4173712528824,0.0003240465757721239
157.53846153846155,0.0009148094825137865
157.65973826020013,0.0018314607490350578
157.78120184899845,0.0024578721980872734
157.9028527370856,0.002057135161944437
158.02469135802468,0.001036782186212498
158.14671814671814,0.0012182955484264675
158.26893353941267,0.0035392584952369764
158.39133797370457,0.006019568360330125
158.5139318885449,0.006169935083751297
158.63671572424477,0.004763942843377839
158.7596899224806,0.004277899217927653
158.88285492629947,0.00481658346345204
159.0062111801242,0.005115465281222125
159.12975912975912,0.005493826956156926
159.25349922239502,0.006431705715373006
159.37743190661476,0.007089705382695373
159.50155763239874,0.007208150680502733
159.62587685113016,0.007342511990307264
159.7503900156006,0.007406936166117104
159.87509758001562,0.007325560556642518
160.0,0.007391789302576648
160.12509773260362,0.00746409221863683
160.2503912363067,0.00735875344505509
160.37588097102582,0.007075591182240514
160.5015673981191,0.006448553795160878
160.62745098039213,0.005499122866750285
160.7535321821036,0.0043836741861622225
160.87981146897093,0.003214242478759748
161.0062893081761,0.002172091417960418
161.13296616837135,0.0013449990780632346
161.25984251968504,0.0007541740094249939
161.38691883372735,0.0003823322272518882
161.51419558359618,0.00017303132901601677
161.64167324388316,7.433587442694147e-05
161.7693522906793,3.512202283314501e-05
161.89723320158103,2.178629250720824e-05
162.0253164556962,1.863846904989987e-05
162.15360253365006,1.8425057715501463e-05
162.28209191759112,1.632310443961386e-05
162.41078509119745,1.2848823908378534e-05
162.53968253968253,9.598639456008976e-06
162.66878474980143,6.381157033242186e-06
162.79809220985692,4.227305194878822e-06
162.92760540970565,2.7812091066559783e-06
163.05732484076432,1.5900364420451694e-06
163.18725099601593,9.969490551545434e-07
163.31738437001593,5.712891737238605e-07
163.44772545889865,1.99885665148719e-07
163.57827476038338,1.0269306769003874e-07
163.709032773781,6.987432830247297e-08
163.84,1.4570104605067053e-08
163.97117694155327,4.9738630759219815e-09
164.1025641025641,5.231034183003007e-09
164.23416198877305,5.149421614513849e-09
164.3659711075441,1.1255099982600852e-08
164.49799196787149,8.763787403951883e-09
164.63022508038586,1.3995611567881868e-09
164.76267095736122,2.652892776660367e-09
164.89533011272144,2.0217570552173285e-09
165.02820306204674,2.2833939619078116e-09
165.16129032258064,4.704812355628886e-09
165.29459241323647,2.0245112547473265e-09
165.4281098546042,5.709698464267529e-10
165.56184316895713,5.709488557238183e-09
165.6957928802589,2.468302213541529e-09
165.82995951417004,2.789207869484686e-09
165.9643435980551,1.3972881199091114e-08
166.09894566098947,5.716735790695376e-09
166.23376623376623,8.893883963586458e-10
166.36880584890332,1.2914537164253588e-09
166.5040650406504,7.839649514976607e-10
166.63954434499593,3.739222981931329e-09
166.77524429967426,5.085358881470699e-10
166.9111654441728,3.799960899978373e-09
167.047308319739,9.445449797670117e-09
167.18367346938777,7.242127974196282e-09
167.3202614379085,2.502713138812778e-09
167.45707277187245,2.021486011485602e-09
167.59410801963992,1.5933653532307049e-09
167.7313677313677,1.140913016778199e-10
167.86885245901638,4.521102157022708e-09
168.00656275635768,8.068667434329958e-09
168.14449917898193,4.891627511547794e-09
168.28266228430567,1.6549921551441408e-09
168.42105263157896,9.436144305629947e-11
168.559670781893,3.1357985841406e-09
168.6985172981878,1.3250874281561203e-08
168.83759274525966,1.1033476388213558e-08
168.97689768976898,2.186350777960268e-09
169.11643270024774,5.339667586136918e-09
169.25619834710741,6.9941319292183505e-09
169.39619520264682,2.2728197226612956e-09
169.53642384105962,7.264681342766803e-11
169.67688483844242,3.6424755670957496e-12
169.81757877280262,4.804759063028664e-10
169.95850622406635,2.7379480933782515e-09
170.09966777408638,2.883274291460525e-09
170.24106400665005,1.4358964043368232e-09
170.3826955074875,2.9900579773466875e-09
170.52456286427974,2.3279672027326264e-09
170.66666666666666,4.280860025656873e-09
170.8090075062552,8.664199573090867e-09
170.9515859766277,3.428694658184727e-09
171.09440267335003,8.215234155761561e-10
171.23745819397996,5.424853067538629e-09
171.3807531380753,8.053158577029982e-09
171.52428810720266,9.25559916795177e-09
171.66806370494552,3.9743633072484776e-09
171.81208053691276,2.0593306841164245e-09
171.95633921074725,4.069586598683075e-09
172.10084033613444,1.1833096226700543e-09
172.24558452481077,1.5612339933574727e-09
172.3905723905724,2.581520789767186e-09
172.5358045492839,1.2345133183194105e-09
172.681281618887,3.7296105024937805e-10
172.82700421940928,3.760225109275032e-10
172.97297297297297,1.775392302930098e-09
173.11918850380385,1.515972238253864e-09
173.26565143824024,4.1755882046260364e-09
173.41236240474177,8.183514515039113e-09
173.55932203389833,7.717109710474968e-09
173.70653095843934,3.0569776221805425e-09
173.85398981324278,3.5269652955759238e-09
174.0016992353441,2.2623622272998332e-08
174.14965986394557,2.0186221200824018e-08
174.2978723404255,5.540962691006955e-10
174.44633730834755,6.875195787936176e-09
174.59505541346974,6.635350245413089e-09
174.74402730375425,6.537161647999784e-09
174.8932536293766,2.2613460996517957e-09
175.04273504273505,8.39773579109179e-09
175.1924721984602,1.2763087386235307e-08
175.34246575342465,3.233300883287664e-09
175.49271636675235,9.40317847215226e-10
175.6432246998285,1.5601601425068566e-09
175.79399141630904,1.5683141634146235e-09
175.94501718213058,1.8525335744214357e-09
176.0963026655202,2.1701234675236982e-09
176.24784853700515,1.174590106128541e-09
176.3996554694229,1.1812631701860608e-09
176.55172413793102,1.8197706423108897e-09
176.70405522001724,1.4211235286080721e-09
176.85664939550952,7.754537470417192e-10
177.00950734658602,4.914881087609967e-10
177.16262975778545,7.576027221696185e-09
177.3160173160173,9.773862749731703e-09
177.46967071057193,2.6249733312350113e-09
177.62359063313096,3.501867734775694e-10
177.77777777777777,1.5251496476704658e-09
177.93223284100782,7.247858612529626e-09
178.08695652173913,5.1882746547897825e-09
178.24194952132288,3.664748641028942e-10
178.397212543554,6.8054717649909324e-09
178.55274629468178,2.6970314670387095e-08
178.70855148342056,1.4013163145780195e-08
178.86462882096066,1.1345053061751852e-10
179.02097902097898,2.898890247330439e-09
179.17760279965006,7.706115272908971e-10
179.33450087565674,8.104847840343433e-09
179.4916739702016,1.904372883380052e-09
179.64912280701753,3.0089107802824407e-09
179.80684811237927,6.689563986454717e-09
179.96485061511424,2.7049898151323165e-09
180.12313104661388,1.3181283545983716e-09
180.28169014084506,5.887131473181913e-09
180.44052863436124,2.2480317485883017e-10
180.59964726631395,3.85792768550324e-09
180.75904677846424,2.992206909287475e-09
180.91872791519435,3.972392119613021e-09
181.07869142351902,5.545759950697704e-09
181.23893805309734,4.3713999105780824e-09
181.39946855624444,1.0216626643030118e-09
181.56028368794324,2.2570758396638693e-09
181.72138420585628,1.1273798140228815e-09
181.88277087033748,5.0817788162270265e-09
182.04444444444445,6.291475966540041e-09
182.20640569395016,2.5927505433416414e-09
182.3686553873553,7.859893631496706e-10
182.53119429590015,1.4551446790660001e-09
182.69402319357712,2.7261768730357364e-09
182.85714285714286,3.3420461342960777e-10
183.0205540661305,1.1268862276766067e-08
183.18425760286226,1.1068068597001997e-08
183.34825425246197,1.9714845446355936e-09
183.51254480286738,4.674078716938271e-09
183.67713004484304,1.651677791109148e-10
183.84201077199282,2.0783158665317106e-09
184.00718778077265,7.641766859348607e-11
184.1726618705036,2.759348686238093e-09
184.33843384338437,2.4310926838054494e-09
184.5045045045045,1.572983966704245e-09
184.67087466185754,1.7145464300818366e-09
184.83754512635377,1.0701730619281917e-10
185.0045167118338,3.8847672735212595e-09
185.17179023508135,2.8892074269615726e-09
185.33936651583707,2.8385828720163583e-09
185.5072463768116,1.2102697820297994e-08
185.675430643699,4.443107974716401e-09
185.84392014519057,4.602780588301303e-09
186.01271571298818,8.499879526669777e-09
186.1818181818182,1.525915821248282e-08
186.3512283894449,4.408124409224048e-09
186.52094717668484,1.2070616135554579e-11
186.69097538742025,1.1402518634373092e-09
186.86131386861314,4.1218566369214434e-09
187.03196347031962,1.982773575421124e-09
187.20292504570384,7.567247802650357e-09
187.37419945105214,3.1228224991439414e-09
187.54578754578753,1.7129104374144828e-10
187.71769019248396,1.8211780731619355e-09
187.88990825688072,4.8539736900229584e-09
188.06244260789717,2.440731021774821e-09
188.23529411764707,4.216852916705742e-09
188.40846366145354,1.9255958820067363e-09
188.5819521178637,1.7581856116961624e-09
188.75576036866357,3.7533467619925856e-09
188.92988929889296,9.476288749878175e-10
189.10433979686056,1.4714751956967179e-09
189.27911275415894,1.0171277622709627e-09
189.45420906567992,2.512876637203234e-09
189.62962962962962,1.0428645573212648e-09
189.80537534754404,4.015522361272166e-09
189.98144712430428,3.893497207512152e-09
190.15784586815226,1.1888572379662942e-09
190.3345724907063,6.340891918625346e-10
190.51162790697674,1.2694133789026434e-09
190.68901303538178,2.5150119273476434e-09
190.8667287977633,6.314036585779078e-09
191.044776119403,4.839090101350742e-09
191.22315592903828,1.5672382378684519e-10
191.4018691588785,4.455244692185127e-10
191.5809167446211,2.8272749511303334e-09
191.76029962546815,6.7165380707726e-09
191.94001874414244,1.4464372244512992e-10
192.12007504690433,3.3246977610515234e-09
192.3004694835681,2.172490127733461e-09
192.48120300751881,4.069656164871401e-09
192.66227657572907,6.228364217785814e-09
192.8436911487759,5.940598600727906e-09
193.02544769085767,1.0612129482304814e-09
193.2075471698113,1.0709909370694578e-09
193.38999055712932,2.5118416702051855e-09
193.57277882797732,4.866678116271207e-09
193.75591296121098,7.705636499742775e-09
193.93939393939394,2.3837239374763637e-09
194.12322274881518,2.1434439514334513e-09
194.30740037950665,6.826248931745112e-09
194.49192782526114,1.4790114619105365e-10
194.67680608365018,1.2913555729542636e-08
194.86203615604185,7.424165732286759e-09
195.04761904761907,1.9512893689914142e-09
195.23355576739752,7.4367895719125155e-09
195.4198473282443,8.810362162885973e-10
195.6064947468959,1.2631641319818954e-09
195.79349904397705,4.606200204484159e-09
195.9808612440191,2.116157620691118e-09
196.1685823754789,6.42537931526748e-10
196.35666347075744,4.71866676133033e-09
196.5451055662188,3.896867228371811e-09
196.73390970220942,2.250476274384384e-10
196.92307692307693,3.071286321790656e-10
197.1126082771896,1.784430068445593e-10
197.30250481695566,7.662809155084518e-10
197.4927675988428,6.990546351511932e-09
197.68339768339766,3.8294713710465656e-09
197.8743961352657,3.006051323198652e-09
198.06576402321085,2.9107987361501307e-09
198.25750242013552,1.1724133653915888e-10
198.44961240310076,6.382013594024876e-10
198.64209505334625,1.0794019587053272e-09
198.83495145631065,1.2107614508613536e-09
199.02818270165207,8.42627705045123e-09
199.22178988326846,4.153303507757243e-09
199.4157740993184,2.9739669463456857e-09
199.61013645224173,7.024127388978498e-09
199.8048780487805,3.439155722011334e-09
200.0,3.7205395175498277e-09
200.19550342130987,5.8154990580571856e-09
200.3913894324853,3.0464057226908342e-09
200.58765915768853,9.085849647609603e-10
200.78431372549022,5.649888409619163e-10
200.9813542688911,6.765749047225336e-10
201.17878192534383,4.941627919111889e-10
201.37659783677483,1.198638798350491e-09
201.5748031496063,3.636153575679774e-09
201.77339901477833,7.2310265400939254e-09
201.9723865877712,2.4071056372997557e-09
