"Wavelength, nm",Intensity
136.44237175216523,2.569434156141454e-26
136.53333333333333,2.667077293093682e-26
136.62441627751835,3.3747915524106266e-26
136.71562082777035,3.6129168982877973e-26
136.80694722778892,5.052064432279658e-26
136.89839572192514,6.485450612254964e-26
136.98996655518394,6.695965191179584e-26
137.08165997322624,8.018215274025603e-26
137.17347622237108,6.665256296890631e-26
137.26541554959786,7.6333248962634305e-25
137.35747820254863,5.42303182457411e-24
137.4496644295302,2.5436152978140564e-23
137.54197447951645,1.1903951027282022e-22
137.63440860215053,3.8608572574612717e-22
137.72696704774717,1.2287817006248683e-21
137.81965006729476,3.5006640412372064e-21
137.9124579124579,5.303634586325536e-21
138.0053908355795,3.049252593691242e-21
138.09844908968307,2.0077730354015283e-20
138.19163292847506,1.2259763866657834e-19
138.28494260634707,3.0270835415912196e-19
138.37837837837836,3.903077736244446e-19
138.47194050033806,3.363979491912011e-19
138.5656292286874,2.774144948270826e-19
138.65944482058225,2.064544591181267e-19
138.75338753387533,1.44332528409218e-19
138.84745762711862,4.385068369760355e-19
138.94165535956583,1.8143331624610995e-18
139.03598099117448,4.255651283467498e-18
139.1304347826087,6.440136796608819e-18
139.22501699524133,9.396596169309163e-18
139.31972789115645,1.8383327760501258e-17
139.4145677331518,4.0668512987032554e-17
139.50953678474113,7.713572564814266e-17
139.60463531015677,1.111401744217587e-16
139.69986357435198,1.1929005725346872e-16
139.79522184300342,9.295179379999893e-17
139.89071038251367,4.6115944620133597e-17
139.98632946001365,9.196337765938565e-18
140.08207934336525,1.376739280636904e-18
140.17796030116358,8.431515793884877e-18
140.27397260273972,9.385118489982522e-18
140.37011651816314,5.11772895600228e-18
140.46639231824417,2.8200382866837368e-18
140.56280027453673,3.2874526124400292e-18
140.65934065934067,6.978115976760284e-18
140.75601374570448,1.1948725084976834e-17
140.85281980742778,1.2835412241579569e-17
140.949759119064,2.2122095165269307e-17
141.04683195592284,9.165031516682316e-17
141.14403859407307,2.532053705689227e-16
141.24137931034483,4.351473332905336e-16
141.33885438233264,5.168438802305632e-16
141.4364640883978,4.470798251834717e-16
141.53420870767104,2.799758145151966e-16
141.6320885200553,1.9872535368961156e-16
141.73010380622836,2.9012152657382823e-16
141.8282548476454,2.369949409402472e-16
141.92654192654192,8.169853505742271e-17
142.0249653259362,8.248707819760992e-16
142.1235253296322,2.768040258221783e-15
142.22222222222223,4.557883873742727e-15
142.32105628908963,4.996813169407815e-15
142.42002781641168,4.887104662244598e-15
142.51913709116212,7.290294397492308e-15
142.6183844011142,1.3606836587955402e-14
142.7177700348432,1.904034266427799e-14
142.81729428172943,1.8604185764301818e-14
142.91695743196092,1.3892481025499761e-14
143.0167597765363,8.915933968584971e-15
143.11670160726763,5.59448984144763e-15
143.21678321678323,4.2358130941669865e-15
143.31700489853043,5.2375302381068416e-15
143.4173669467787,9.621502365954288e-15
143.5178696566223,1.7456032134408816e-14
143.61851332398317,2.534472498131662e-14
143.71929824561403,2.8390657160452747e-14
143.8202247191011,2.614908551046959e-14
143.92129304286718,2.2878311329803e-14
144.0225035161744,1.984712560178719e-14
144.12385643912737,2.0089702059649928e-14
144.22535211267606,5.003498227872144e-14
144.32699083861874,1.04917856838974e-13
144.42877291960508,1.3681979533759976e-13
144.530698659139,1.559156094140556e-13
144.6327683615819,1.212352983362974e-13
144.73498233215545,5.94503671221218e-14
144.83734087694484,6.509525832761693e-14
144.9398443029016,4.670109766627631e-14
145.04249291784703,2.632041432966384e-15
145.14528703047483,6.957688989649347e-15
145.24822695035462,7.949626716644526e-14
145.35131298793468,9.4764559453177e-14
145.45454545454544,1.2457353107792623e-14
145.55792466240226,2.6366395306972175e-13
145.66145092460883,8.210754557562235e-14
145.76512455516016,2.5424492588933094e-13
145.86894586894587,6.218892762542399e-13
145.9729151817534,3.165951378141613e-14
146.07703281027102,1.6792482696368286e-12
146.18129907209135,1.4780793226625048e-12
146.28571428571428,5.132618025896984e-13
146.39027877055037,4.4492945783610074e-12
146.49499284692416,1.7596244505340813e-12
146.59985683607732,3.8987121457820345e-12
146.7048710601719,9.641717861187947e-12
146.8100358422939,8.584411672732251e-12
146.91535150645623,3.4149219169876172e-12
147.0208183776023,1.836830744846294e-11
147.1264367816092,1.1372649089463831e-10
147.23220704529115,2.3375349765972383e-10
147.33812949640287,2.0071569382019964e-10
147.4442044636429,1.4142373279505447e-10
147.55043227665706,8.125615156514877e-10
147.6568132660418,2.9313021520462817e-09
147.76334776334778,5.657777931748159e-09
147.87003610108303,6.821404972230424e-09
147.97687861271675,5.0798327332837265e-09
148.08387563268258,1.902784721184102e-09
148.19102749638205,2.0688849877632728e-10
148.29833454018825,1.513655516196988e-11
148.40579710144928,2.478687290854368e-11
148.51341551849166,2.674346296862237e-10
148.6211901306241,2.020935396794171e-09
148.72912127814087,2.612587935448742e-09
148.8372093023256,1.0459816584242636e-09
148.94545454545454,1.1298255960809494e-09
149.0538573508006,7.904434308814165e-10
149.16241806263656,5.2739236632786346e-11
149.27113702623907,1.2616260874206545e-10
149.38001458789202,3.5147132746603766e-09
149.4890510948905,1.4593663371127104e-08
149.59824689554418,2.1706529602338075e-08
149.70760233918128,1.542009143824066e-08
149.81711777615214,6.400860536670836e-09
149.9267935578331,1.9373212011449165e-09
150.03663003663004,2.2908639889909878e-10
150.1466275659824,3.2781458788427617e-09
150.25678650036684,8.166289869020035e-09
150.36710719530103,6.7520347659873574e-09
150.47759000734754,2.991052807616689e-09
150.58823529411762,2.4020190716099397e-09
150.69904341427517,1.902785868335555e-09
150.8100147275405,8.200290440968626e-10
150.92114959469419,5.158852392600188e-10
151.03244837758112,7.383893168037984e-10
151.1439114391144,1.997000620625808e-09
151.25553914327915,5.297877901595944e-09
151.3673318551367,5.949327878016782e-09
151.47928994082838,1.780419099187483e-09
151.59141376757958,2.651537227043691e-09
151.7037037037037,8.378740115804983e-09
151.81616011860638,7.024601688149525e-09
151.92878338278933,9.419920404508328e-10
152.04157386785448,9.661965639736462e-10
152.15453194650817,2.902315617941754e-09
152.26765799256503,4.517826131238705e-10
152.38095238095235,2.8691255624397883e-09
152.4944154877141,6.863005636254816e-09
152.6080476900149,3.178176806224113e-09
152.72184936614468,1.5202317471584944e-10
152.8358208955224,1.0118681284723397e-10
152.9499626587005,7.831644420301326e-10
153.0642750373692,1.904887936800943e-09
153.1787584143605,2.3379919056886686e-09
153.29341317365268,1.3691068932483034e-09
153.40823970037454,5.280406090440351e-10
153.5232383808096,5.390857194232429e-09
153.6384096024006,6.94172346125002e-09
153.75375375375376,3.5356592946993588e-09
153.86927122464311,1.686614330122791e-09
153.98496240601503,7.499628845965575e-11
154.10082768999246,3.802609637964038e-09
154.2168674698795,3.7174352958065906e-09
154.33308214016577,1.1384825905999302e-10
154.4494720965309,3.507970792858399e-09
154.56603773584905,5.9735793058600595e-09
154.68277945619334,4.745784764475581e-09
154.79969765684052,1.8901674995598716e-09
154.91679273827532,1.385488294844751e-10
155.0340651021953,1.478133134825215e-09
155.15151515151516,7.837769701566974e-09
155.2691432903715,2.728371158092759e-08
155.38694992412746,6.352867313576055e-08
155.50493545937738,9.855073974172348e-08
155.62310030395136,1.3941301440577715e-07
155.74144486692012,2.6974757131564547e-07
155.8599695585997,5.593370511908586e-07
155.97867479055597,9.956913606194124e-07
156.09756097560975,1.621713459330745e-06
156.21662852784135,2.710783863644267e-06
156.33587786259542,4.730944624136345e-06
156.45530939648586,8.578173018666781e-06
156.5749235474006,1.6665681113007582e-05
156.69472073450652,3.2399198134186235e-05
156.8147013782542,5.4907099084770954e-05
156.93486590038313,7.336729034235174e-05
157.05521472392638,7.313363522234603e-05
157.17574827321565,6.315217794039658e-05
157.29646697388634,0.0001134354641185833
157.4173712528824,0.0003622257105684217
157.53846153846155,0.000927883722475988
157.65973826020013,0.00168533033866203
157.78120184899845,0.0021053551843388135
157.9028527370856,0.001674659089111431
158.02469135802468,0.0009075716610387927
158.14671814671814,0.001480165653033881
158.26893353941267,0.004181679942030613
158.39133797370457,0.0070023692685394585
158.5139318885449,0.007312072541843922
158.63671572424477,0.005836816897113071
158.7596899224806,0.005443121700621123
158.88285492629947,0.006348569642039255
159.0062111801242,0.006688801578812396
159.12975912975912,0.006687075123416383
159.25349922239502,0.0075210152647144
159.37743190661476,0.008368625019802636
159.50155763239874,0.008493809450010926
159.62587685113016,0.008684702813555184
159.7503900156006,0.009009288786057796
159.87509758001562,0.009050308457939105
160.0,0.009168896926719471
160.12509773260362,0.009321019141549506
160.2503912363067,0.009074127670522236
160.37588097102582,0.008487941601792696
160.5015673981191,0.007480867062287602
160.62745098039213,0.0060796212306488545
160.7535321821036,0.00461801064500269
160.87981146897093,0.0032466824626703854
161.0062893081761,0.0021159451956928297
161.13296616837135,0.001284849367303547
161.25984251968504,0.0007195733315170738
161.38691883372735,0.0003823950985296451
161.51419558359618,0.00019148419715656474
161.64167324388316,9.352823777805407e-05
161.7693522906793,5.078059086048663e-05
161.89723320158103,2.9954450520168926e-05
162.0253164556962,1.9266442499733624e-05
162.15360253365006,1.4416066467437623e-05
162.28209191759112,1.009762351916022e-05
162.41078509119745,6.863664895195065e-06
162.53968253968253,5.117495770736849e-06
162.66878474980143,3.0312078719049752e-06
162.79809220985692,1.8907114204535524e-06
162.92760540970565,1.2885987583044202e-06
163.05732484076432,5.867466726536622e-07
163.18725099601593,3.699837868565902e-07
163.31738437001593,2.2479872844299507e-07
163.44772545889865,9.015104788097662e-08
163.57827476038338,6.916383534664971e-08
163.709032773781,2.047380559803075e-08
163.84,3.974322721484966e-09
163.97117694155327,1.1766889217525454e-08
164.1025641025641,4.682620048777055e-09
164.23416198877305,5.83827517495884e-10
164.3659711075441,1.943152975771716e-09
164.49799196787149,8.50520465075972e-09
164.63022508038586,1.1218129559912308e-08
164.76267095736122,2.7363810768034357e-09
164.89533011272144,6.779254600027319e-10
165.02820306204674,2.7421927252389146e-09
165.16129032258064,2.581381192193703e-09
165.29459241323647,3.471858129158191e-09
165.4281098546042,3.617120505739173e-09
165.56184316895713,1.7323668561429523e-09
165.6957928802589,6.267425189172099e-09
165.82995951417004,1.1740288864197531e-08
165.9643435980551,4.409225029095796e-09
166.09894566098947,5.241427807221486e-10
166.23376623376623,1.1442267234769169e-08
166.36880584890332,1.4720904441031736e-08
166.5040650406504,2.4225864439582336e-09
166.63954434499593,1.023852937201151e-09
166.77524429967426,1.3717642969031495e-09
166.9111654441728,3.783325642903925e-09
167.047308319739,1.4352354924506608e-08
167.18367346938777,1.2483582848023941e-08
167.3202614379085,2.3525007796852653e-09
167.45707277187245,4.150906814190749e-09
167.59410801963992,5.5227189418833165e-09
167.7313677313677,8.466650647043578e-10
167.86885245901638,1.6854973969674616e-10
168.00656275635768,7.676140154513879e-10
168.14449917898193,8.167900319033296e-09
168.28266228430567,1.350082414296341e-08
168.42105263157896,7.386310601725507e-09
168.559670781893,3.811973956241867e-09
168.6985172981878,3.2081374511076545e-09
168.83759274525966,1.8496927110796385e-09
168.97689768976898,2.7865099449325784e-10
169.11643270024774,7.053794240190672e-09
169.25619834710741,6.3678597451128775e-09
169.39619520264682,1.0345045011292803e-09
169.53642384105962,7.193690248731208e-09
169.67688483844242,1.2265756919500362e-08
169.81757877280262,9.994260512689207e-09
169.95850622406635,2.13110249467852e-09
170.09966777408638,2.0830219123359698e-09
170.24106400665005,9.984578684609275e-09
170.3826955074875,3.6777603974196486e-09
170.52456286427974,7.991008164614489e-10
170.66666666666666,3.32362243940479e-09
170.8090075062552,9.297873647058498e-10
170.9515859766277,2.600424534670899e-09
171.09440267335003,1.6361343740268226e-09
171.23745819397996,1.5699926390451267e-09
171.3807531380753,4.807015655431515e-09
171.52428810720266,8.757536563053739e-09
171.66806370494552,5.680263329020565e-09
171.81208053691276,4.192437126932134e-09
171.95633921074725,6.1124806719426935e-09
172.10084033613444,1.9471754290353366e-09
172.24558452481077,6.507463544835379e-09
172.3905723905724,1.2064118189999473e-08
172.5358045492839,4.298139866719188e-09
172.681281618887,7.452850250848079e-10
172.82700421940928,1.9041033578715073e-09
172.97297297297297,1.3519569732993787e-09
173.11918850380385,2.023032454168289e-09
173.26565143824024,8.121863422348017e-09
173.41236240474177,1.019330745066154e-08
173.55932203389833,1.2745300627200532e-09
173.70653095843934,3.7418125938593895e-09
173.85398981324278,9.815977936506744e-09
174.0016992353441,5.598095362252944e-09
174.14965986394557,2.8988334462853625e-09
174.2978723404255,3.2983340866560886e-10
174.44633730834755,3.9275116779562665e-09
174.59505541346974,1.0534206480163054e-08
174.74402730375425,1.1080923928726078e-08
174.8932536293766,4.40257206859311e-09
175.04273504273505,1.227984635686672e-09
175.1924721984602,1.1445801862985144e-09
175.34246575342465,2.4046480415896175e-10
175.49271636675235,3.324909136841483e-10
175.6432246998285,4.047813055767666e-09
175.79399141630904,1.2458098839057518e-08
175.94501718213058,1.2974621938993948e-08
176.0963026655202,6.184830095419368e-09
176.24784853700515,2.395387524180901e-09
176.3996554694229,2.7078975176056654e-10
176.55172413793102,6.6266449218864335e-09
176.70405522001724,3.0950972012536933e-09
176.85664939550952,2.7800739553235466e-09
177.00950734658602,8.354199082763486e-09
177.16262975778545,1.6363759141970456e-09
177.3160173160173,4.661101589247729e-10
177.46967071057193,9.598857315776672e-10
177.62359063313096,7.202498266812949e-11
177.77777777777777,3.585980772655251e-10
177.93223284100782,5.993031948784887e-10
178.08695652173913,5.424602935934752e-10
178.24194952132288,6.065024643890898e-10
178.397212543554,1.2916401325821307e-08
178.55274629468178,1.788620202101156e-08
178.70855148342056,1.5259375606373103e-09
178.86462882096066,4.097862463634204e-09
179.02097902097898,5.296918770200579e-09
179.17760279965006,3.6244934014152457e-09
179.33450087565674,2.846525450485811e-09
179.4916739702016,5.140431180766977e-10
179.64912280701753,2.1793640633133123e-10
179.80684811237927,7.959198508811504e-10
179.96485061511424,9.871450049704717e-10
180.12313104661388,2.7735181593403675e-09
180.28169014084506,1.550212242465911e-08
180.44052863436124,8.628823426927727e-09
180.59964726631395,4.557575097346309e-10
180.75904677846424,1.886584452887057e-09
180.91872791519435,1.2042333372880063e-09
181.07869142351902,5.974907510489329e-09
181.23893805309734,2.0482045329240695e-09
181.39946855624444,1.762485940869864e-09
181.56028368794324,8.544275151096067e-09
181.72138420585628,3.972540023027944e-09
181.88277087033748,1.8199136627123447e-10
182.04444444444445,1.2753399686264872e-09
182.20640569395016,7.772313968980624e-09
182.3686553873553,1.028694274735745e-08
182.53119429590015,1.8486677836187456e-09
182.69402319357712,1.558201258431591e-10
182.85714285714286,1.305845113554692e-09
183.0205540661305,8.512104437400294e-09
183.18425760286226,1.0401174915149862e-08
183.34825425246197,3.6003937917777397e-09
183.51254480286738,2.269133029389127e-09
183.67713004484304,1.4171390095202018e-09
183.84201077199282,4.955004873220853e-10
184.00718778077265,2.5650509616516366e-10
184.1726618705036,7.311839214668183e-10
184.33843384338437,1.8275617183912217e-10
184.5045045045045,1.70535541646938e-09
184.67087466185754,8.133388928275257e-10
184.83754512635377,8.82222888538284e-11
185.0045167118338,2.4523953532140182e-09
185.17179023508135,7.3271957355844434e-09
185.33936651583707,2.533818537483528e-09
185.5072463768116,9.527013941220647e-11
185.675430643699,3.4259349391525833e-09
185.84392014519057,1.424515148924643e-08
186.01271571298818,1.0182256883504922e-08
186.1818181818182,2.62801000987682e-10
186.3512283894449,6.522165488840816e-09
186.52094717668484,1.0001352175100179e-08
186.69097538742025,7.572431628211187e-10
186.86131386861314,7.612218552853083e-09
187.03196347031962,4.29879574328873e-09
187.20292504570384,8.047557121256128e-10
187.37419945105214,9.654211791350347e-10
187.54578754578753,3.0528713682089647e-09
187.71769019248396,3.339448256404954e-09
187.88990825688072,3.9781428059726735e-09
188.06244260789717,9.752580780880574e-09
188.23529411764707,4.5494290304510174e-09
188.40846366145354,6.345449277768431e-10
188.5819521178637,3.323202266420992e-09
188.75576036866357,2.0185282074382057e-09
188.92988929889296,1.1749895715375958e-10
189.10433979686056,7.39863084076575e-10
189.27911275415894,4.298440993322035e-10
189.45420906567992,2.6346151866891455e-09
189.62962962962962,6.3054698515654584e-09
189.80537534754404,3.4469231907638048e-09
189.98144712430428,1.186137957924834e-09
190.15784586815226,1.8432670609173478e-09
190.3345724907063,9.36490059645392e-09
190.51162790697674,4.123081633136868e-09
190.68901303538178,6.89629680743952e-10
190.8667287977633,2.969736495557689e-10
191.044776119403,2.222224674366209e-09
191.22315592903828,1.1250976772695347e-09
191.4018691588785,2.295256133522215e-09
191.5809167446211,1.6370267834187433e-09
191.76029962546815,2.0966828121565204e-09
191.94001874414244,1.157033070452822e-09
192.12007504690433,8.018392885297122e-09
192.3004694835681,1.7149860675483683e-09
192.48120300751881,1.9091103994470884e-09
192.66227657572907,3.262458624370575e-09
192.8436911487759,1.1647632960284658e-09
193.02544769085767,3.612489790706377e-10
193.2075471698113,2.1916652883462613e-09
193.38999055712932,2.800167008334038e-09
193.57277882797732,4.943618431566906e-11
193.75591296121098,3.383372024487631e-09
193.93939393939394,5.445156905712094e-09
194.12322274881518,7.821313068962792e-10
194.30740037950665,1.3618338223060694e-09
194.49192782526114,4.73335612387357e-09
194.67680608365018,6.716621332851062e-09
194.86203615604185,4.199011313470594e-09
195.04761904761907,6.581423583736218e-10
195.23355576739752,2.7300344314061715e-09
195.4198473282443,7.06695603581464e-09
195.6064947468959,2.0466703131359545e-09
195.79349904397705,5.295638806569743e-09
195.9808612440191,1.1444761178384962e-08
196.1685823754789,2.495401566031612e-10
196.35666347075744,9.600026904498629e-09
196.5451055662188,9.067882649750882e-09
196.73390970220942,2.107574733011546e-09
196.92307692307693,7.71367955838425e-09
197.1126082771896,5.327335971926628e-09
197.30250481695566,4.2014769455829384e-10
197.4927675988428,3.0737565313252897e-09
197.68339768339766,1.3356644358272947e-09
197.8743961352657,4.551312136565693e-09
198.06576402321085,6.723412515570869e-09
198.25750242013552,3.6392571836332626e-09
198.44961240310076,3.5256442191711258e-09
198.64209505334625,2.268907985118491e-09
198.83495145631065,3.3501962792250408e-09
199.02818270165207,6.08109090093543e-09
199.22178988326846,5.9494306379397844e-09
199.4157740993184,1.5883806583807514e-09
199.61013645224173,1.7665782045046113e-09
199.8048780487805,6.461133261080297e-10
200.0,1.3986048163065251e-09
200.19550342130987,2.391134040521376e-09
200.3913894324853,1.093590118458017e-09
200.58765915768853,4.190594404466387e-09
200.78431372549022,8.425690385003126e-09
200.9813542688911,1.6207898808794917e-09
201.17878192534383,1.065470897850293e-08
201.37659783677483,1.3838825460782674e-09
201.5748031496063,2.53676804470714e-09
201.77339901477833,2.7730090813856414e-09
201.9723865877712,2.0438330870057496e-09
