"Wavelength, nm",Intensity
136.44237175216523,1.5659949766641292e-18
136.53333333333333,1.8758167146238447e-18
136.62441627751835,2.419904544230392e-18
136.71562082777035,2.7191442231798524e-18
136.80694722778892,3.4305652922317156e-18
136.89839572192514,4.203809714431151e-18
136.98996655518394,9.594524192554664e-18
137.08165997322624,1.9456146983468733e-16
137.17347622237108,7.112626091736516e-15
137.26541554959786,1.7909417972698943e-13
137.35747820254863,2.5437764115287484e-12
137.4496644295302,2.4018953428883397e-11
137.54197447951645,1.6579175377794266e-10
137.63440860215053,8.151391563223405e-10
137.72696704774717,2.746374991424592e-09
137.81965006729476,6.805384081367405e-09
137.9124579124579,1.453707433018579e-08
138.0053908355795,2.99771081491268e-08
138.09844908968307,6.498248586583086e-08
138.19163292847506,1.6643943284372357e-07
138.28494260634707,4.614494305718544e-07
138.37837837837836,1.0795158677370733e-06
138.47194050033806,1.8812938837873883e-06
138.5656292286874,2.7783368754196754e-06
138.65944482058225,4.525831462178891e-06
138.75338753387533,7.6376802453168e-06
138.84745762711862,1.0744388079655734e-05
138.94165535956583,1.352519366634062e-05
139.03598099117448,1.7610046455352202e-05
139.1304347826087,1.9007594671120878e-05
139.22501699524133,1.0844313853322353e-05
139.31972789115645,4.84929088874951e-07
139.4145677331518,1.1210386014989273e-05
139.50953678474113,4.4349027074373354e-05
139.60463531015677,5.2390574801185434e-05
139.69986357435198,1.7893941059002276e-05
139.79522184300342,4.523115801985576e-05
139.89071038251367,0.00023835652786901966
139.98632946001365,0.0005317689302996825
140.08207934336525,0.0007534879896797174
140.17796030116358,0.0007511933762156045
140.27397260273972,0.0005392854341884895
140.37011651816314,0.00042047293396609784
140.46639231824417,0.0006005370923459644
140.56280027453673,0.0008007088127287061
140.65934065934067,0.0007470995312255598
140.75601374570448,0.0005604724025400944
140.85281980742778,0.00046477862422941035
140.949759119064,0.0005176144763913176
141.04683195592284,0.0005940978882828097
141.14403859407307,0.0005474420403187866
141.24137931034483,0.00035429840322731646
141.33885438233264,0.00016529523269852018
141.4364640883978,0.000102828934671341
141.53420870767104,6.423550931585655e-05
141.6320885200553,3.810403967974445e-05
141.73010380622836,0.0001673314334287302
141.8282548476454,0.0002992031329677861
141.92654192654192,0.0002449356794605187
142.0249653259362,0.00011104686209546348
142.1235253296322,2.5740329434145633e-05
142.22222222222223,1.979205276719665e-06
142.32105628908963,2.6012384048259036e-05
142.42002781641168,7.529031207474611e-05
142.51913709116212,0.0001441648008733455
142.6183844011142,0.0001650253373378713
142.7177700348432,8.125596955604005e-05
142.81729428172943,0.00018878713182585443
142.91695743196092,0.0007300574135985178
143.0167597765363,0.0012343557308482848
143.11670160726763,0.0012361544389356879
143.21678321678323,0.0011727017726056621
143.31700489853043,0.0012536623004539998
143.4173669467787,0.0010659273609064273
143.5178696566223,0.0006344790946611821
143.61851332398317,0.0003237606243472577
143.71929824561403,0.0005417698185853371
143.8202247191011,0.0009757679354609008
143.92129304286718,0.0009168246673529577
144.0225035161744,0.0005755259384769062
144.12385643912737,0.0002925818385451003
144.22535211267606,0.0001116917446543448
144.32699083861874,0.000192671942004294
144.42877291960508,0.0002529776583684598
144.530698659139,0.00013260161651913478
144.6327683615819,7.250050427567863e-05
144.73498233215545,8.547256528016103e-05
144.83734087694484,0.00012299191065172281
144.9398443029016,0.00019320834447723284
145.04249291784703,0.00019320176822195675
145.14528703047483,8.997552032063919e-05
145.24822695035462,5.109980862960599e-06
145.35131298793468,4.104589299582982e-05
145.45454545454544,6.27478435865764e-05
145.55792466240226,0.0001314220864373514
145.66145092460883,0.0007565923746788817
145.76512455516016,0.0018100206452164739
145.86894586894587,0.0017594038110634387
145.9729151817534,0.0004921474490471512
146.07703281027102,0.00013511005638885013
146.18129907209135,0.00044092505022541866
146.28571428571428,0.00014943639242792392
146.39027877055037,3.1015600154707744e-05
146.49499284692416,0.0004042530730977577
146.59985683607732,0.0016803357309030293
146.7048710601719,0.0024838286521239833
146.8100358422939,0.0023212000785396672
146.91535150645623,0.002889155815658889
147.0208183776023,0.004015150184498691
147.1264367816092,0.006692879062353235
147.23220704529115,0.006873975807087716
147.33812949640287,0.0034571638343041016
147.4442044636429,0.002317247954084637
147.55043227665706,0.00380647835632843
147.6568132660418,0.004599980321127949
147.76334776334778,0.002371806341419683
147.87003610108303,0.0006071662002088182
147.97687861271675,0.0015922842536449206
148.08387563268258,0.0008104570203414055
148.19102749638205,4.852779546570001e-05
148.29833454018825,0.00038954786562136605
148.40579710144928,0.002219853223962445
148.51341551849166,0.002831720432793531
148.6211901306241,0.000884082573912769
148.72912127814087,0.0028897261533210425
148.8372093023256,0.007213828661628627
148.94545454545454,0.009104008173681344
149.0538573508006,0.006624239579323611
149.16241806263656,0.010096127854591514
149.27113702623907,0.01239811544569723
149.38001458789202,0.004461732263929118
149.4890510948905,0.0037336345448577097
149.59824689554418,0.004407769441620727
149.70760233918128,0.0011396324062376746
149.81711777615214,0.0012805526920091832
149.9267935578331,0.0006833767023312702
150.03663003663004,0.005772621645774412
150.1466275659824,0.012527467878752143
150.25678650036684,0.010527914660130287
150.36710719530103,0.0032384069777121574
150.47759000734754,1.3452422468265807e-05
150.58823529411762,0.0046248453668003495
150.69904341427517,0.01636585708022764
150.8100147275405,0.02199372501812119
150.92114959469419,0.011047094524566158
151.03244837758112,0.0012426430030080008
151.1439114391144,0.005805726752137884
151.25553914327915,0.01268336868046424
151.3673318551367,0.011809642634504442
151.47928994082838,0.007205302998800926
151.59141376757958,0.005416385953954737
151.7037037037037,0.01220754064151471
151.81616011860638,0.02730104902946657
151.92878338278933,0.027267237599704782
152.04157386785448,0.003047152492515147
152.15453194650817,0.051071152310620566
152.26765799256503,0.12674247438349615
152.38095238095235,0.08242355045189297
152.4944154877141,0.0061448271806183894
152.6080476900149,0.012752785031067929
152.72184936614468,0.03438335691847744
152.8358208955224,0.04133855849323849
152.9499626587005,0.06392752738462995
153.0642750373692,0.059631744233285155
153.1787584143605,0.02537107807520851
153.29341317365268,0.07209226490461663
153.40823970037454,0.16111196936206587
153.5232383808096,0.11851953560313305
153.6384096024006,0.012976131937990529
153.75375375375376,0.04897784832786616
153.86927122464311,0.08961625892745534
153.98496240601503,0.021294023858339506
154.10082768999246,0.03682648952495828
154.2168674698795,0.07602344582377248
154.33308214016577,0.027639315997489942
154.4494720965309,0.06257514222011806
154.56603773584905,0.23647124708048023
154.68277945619334,0.3332944838621728
154.79969765684052,0.1765898215961262
154.91679273827532,0.09162053406284143
155.0340651021953,0.31033820541285095
155.15151515151516,0.39316718433609954
155.2691432903715,0.16046729864134682
155.38694992412746,0.003577217726632893
155.50493545937738,0.045488331781350554
155.62310030395136,0.0799805382855046
155.74144486692012,0.10729255942023813
155.8599695585997,0.14802392909565598
155.97867479055597,0.12252881848593428
156.09756097560975,0.07307548778964183
156.21662852784135,0.08908168389034743
156.33587786259542,0.1512569111289143
156.45530939648586,0.1452142504535234
156.5749235474006,0.048958346036583965
156.69472073450652,0.0003546442175823069
156.8147013782542,0.033996276988518793
156.93486590038313,0.04842088569838226
157.05521472392638,0.026193972261388043
157.17574827321565,0.01648411421093576
157.29646697388634,0.016768288495860127
157.4173712528824,0.006295460901071223
157.53846153846155,0.0044889168608471626
157.65973826020013,0.035948309174433576
157.78120184899845,0.07526512278717763
157.9028527370856,0.072703321071565
158.02469135802468,0.038016360369352895
158.14671814671814,0.014240503508462631
158.26893353941267,0.006395524058378781
158.39133797370457,0.017012950168969226
158.5139318885449,0.05702566391694949
158.63671572424477,0.1138182115626888
158.7596899224806,0.12196501767198838
158.88285492629947,0.05357568567539558
159.0062111801242,0.011563831858724357
159.12975912975912,0.05009100384176061
159.25349922239502,0.10734283118483019
159.37743190661476,0.09653103050030581
159.50155763239874,0.04750928331717387
159.62587685113016,0.02453917362061673
159.7503900156006,0.01517272597234124
159.87509758001562,0.008593785752620695
160.0,0.021283709501962563
160.12509773260362,0.06151873642168187
160.2503912363067,0.06403285638172035
160.37588097102582,0.014875895882495976
160.5015673981191,0.012591623612507007
160.62745098039213,0.027952148305508424
160.7535321821036,0.010397554222326633
160.87981146897093,0.009351493161562517
161.0062893081761,0.04967038745007611
161.13296616837135,0.08753378833334974
161.25984251968504,0.05709778611931978
161.38691883372735,0.051659781029770466
161.51419558359618,0.10446316994981214
161.64167324388316,0.0872009740418692
161.7693522906793,0.09683983142257815
161.89723320158103,0.15330617141361694
162.0253164556962,0.09008926404529499
162.15360253365006,0.014632205457910967
162.28209191759112,0.0018503069103818512
162.41078509119745,0.0010214944104165841
162.53968253968253,0.0018118299455354026
162.66878474980143,0.01701616068517168
162.79809220985692,0.07901472379186655
162.92760540970565,0.06519400682596237
163.05732484076432,0.07689316528786248
163.18725099601593,0.24553245596451728
163.31738437001593,0.2522073740012004
163.44772545889865,0.10984354281982874
163.57827476038338,0.11559720617732881
163.709032773781,0.1783866307508737
163.84,0.13848459660782375
163.97117694155327,0.06574367931284888
164.1025641025641,0.02358194835089244
164.23416198877305,0.05752515475648921
164.3659711075441,0.11393951213510478
164.49799196787149,0.07516534018720786
164.63022508038586,0.012359427636610857
164.76267095736122,0.00012679342065767958
164.89533011272144,0.0017695896400230465
165.02820306204674,0.002284268101683292
165.16129032258064,0.002885298153547606
165.29459241323647,0.002092066164459404
165.4281098546042,0.005299672960361199
165.56184316895713,0.030310689819660265
165.6957928802589,0.06065086712098685
165.82995951417004,0.03557134430896762
165.9643435980551,0.00015388619720418126
166.09894566098947,0.051397591274346184
166.23376623376623,0.09047547650138134
166.36880584890332,0.049090608137922244
166.5040650406504,0.03095466568128675
166.63954434499593,0.043608031380037715
166.77524429967426,0.02331061587930606
166.9111654441728,0.011546292675170768
167.047308319739,0.02170591291662028
167.18367346938777,0.006404484459281153
167.3202614379085,0.014102930814839992
167.45707277187245,0.07601601840629206
167.59410801963992,0.06642426293509715
167.7313677313677,0.014797207197461873
167.86885245901638,0.05094843206440551
168.00656275635768,0.08050241108895213
168.14449917898193,0.03173796961044617
168.28266228430567,0.003772082497996142
168.42105263157896,0.007131251104182746
168.559670781893,0.0001721684844487768
168.6985172981878,0.05382692597700895
168.83759274525966,0.22040690145715947
168.97689768976898,0.31813807588620824
169.11643270024774,0.18645436249665162
169.25619834710741,0.12444601352955924
169.39619520264682,0.33773805139252894
169.53642384105962,0.4284627597955393
169.67688483844242,0.23118446494957662
169.81757877280262,0.04975131265343697
169.95850622406635,0.0022676912320186635
170.09966777408638,0.0005557016569837558
170.24106400665005,0.0036179737046992642
170.3826955074875,0.006427849726039693
170.52456286427974,0.001184081349497899
170.66666666666666,0.033074267729488085
170.8090075062552,0.14264764878201616
170.9515859766277,0.1671598406246665
171.09440267335003,0.05857343336218434
171.23745819397996,0.013788078540550065
171.3807531380753,0.06658091245372703
171.52428810720266,0.09015108204591633
171.66806370494552,0.06537339708998971
171.81208053691276,0.0391185876834302
171.95633921074725,0.022469375018338216
172.10084033613444,0.013699486344657051
172.24558452481077,0.02104326378575732
172.3905723905724,0.03585212294271396
172.5358045492839,0.023095600257464103
172.681281618887,0.03876161510232582
172.82700421940928,0.08904753510199798
172.97297297297297,0.06746613279590911
173.11918850380385,0.015215752608902667
173.26565143824024,0.1337725727532887
173.41236240474177,0.35129386341590485
173.55932203389833,0.3609066447419752
173.70653095843934,0.20168698790043277
173.85398981324278,0.13265149241926588
174.0016992353441,0.20291340615194275
174.14965986394557,0.314039648871349
174.2978723404255,0.37502948906867106
174.44633730834755,0.29316900979838345
174.59505541346974,0.1320625816104498
174.74402730375425,0.024875807473800287
174.8932536293766,0.00720198410367208
175.04273504273505,0.09667657618535133
175.1924721984602,0.24987579647360256
175.34246575342465,0.32851461712113816
175.49271636675235,0.21221649032116152
175.6432246998285,0.06267975731920593
175.79399141630904,0.19868145296182674
175.94501718213058,0.3671532394135866
176.0963026655202,0.2660567012838254
176.24784853700515,0.1193116757047365
176.3996554694229,0.1579419482332819
176.55172413793102,0.2579198608478074
176.70405522001724,0.2978590831435427
176.85664939550952,0.35381554698241824
177.00950734658602,0.4454555758142009
177.16262975778545,0.507899637870842
177.3160173160173,0.5739366600284511
177.46967071057193,0.773263925020834
177.62359063313096,0.9157389561347086
177.77777777777777,0.87382788783851
177.93223284100782,0.7494373494541259
178.08695652173913,0.703197738797089
178.24194952132288,1.4173811105753789
178.397212543554,2.6636803954567947
178.55274629468178,2.9515688746457642
178.70855148342056,3.1908601725883736
178.86462882096066,4.724015608299271
179.02097902097898,8.211545186393074
179.17760279965006,16.31256937008591
179.33450087565674,29.669051655763994
179.4916739702016,49.61616756634303
179.64912280701753,87.60027958109994
179.80684811237927,149.8193998312281
179.96485061511424,246.337566502259
180.12313104661388,393.37822546138256
180.28169014084506,575.9910982109161
180.44052863436124,818.0340935875348
180.59964726631395,1156.355360960963
180.75904677846424,1559.6375892891676
180.91872791519435,2061.58259193017
181.07869142351902,2608.295131696248
181.23893805309734,3018.802502819718
181.39946855624444,3350.802624324698
181.56028368794324,3517.762694697596
181.72138420585628,3417.252685790407
181.88277087033748,3298.6447099660186
182.04444444444445,2994.947496749797
182.20640569395016,2365.54578839843
182.3686553873553,1815.4598877143326
182.53119429590015,1413.4707030006982
182.69402319357712,1462.6358976409742
182.85714285714286,2523.8329632240498
183.0205540661305,4354.825917560034
183.18425760286226,5574.6357359970425
183.34825425246197,6145.554300081427
183.51254480286738,5683.950259524994
183.67713004484304,3648.72562725485
183.84201077199282,3576.289863827677
184.00718778077265,2945.920417784324
184.1726618705036,2366.7346648949524
184.33843384338437,1647.8556915931213
184.5045045045045,366.0870337853288
184.67087466185754,198.2332468989948
184.83754512635377,510.8124744274865
185.0045167118338,930.0326937314568
185.17179023508135,684.181582209479
185.33936651583707,364.05079988378617
185.5072463768116,48.93453059410556
185.675430643699,185.724721606276
185.84392014519057,156.1110267898181
186.01271571298818,111.55717327337825
186.1818181818182,63.30108943294771
186.3512283894449,113.98578453331072
186.52094717668484,204.6845951171802
186.69097538742025,121.9638250757226
186.86131386861314,75.15198990373302
187.03196347031962,50.07913256052163
187.20292504570384,12.193098558065055
187.37419945105214,4.691153451330489
187.54578754578753,36.48820397137069
187.71769019248396,71.1580650668861
187.88990825688072,37.34735838431955
188.06244260789717,29.433118642205415
188.23529411764707,3.3926773706146336
188.40846366145354,172.02397050455784
188.5819521178637,385.60121905897097
188.75576036866357,605.8640233620987
188.92988929889296,525.8016774332527
189.10433979686056,188.14481349022657
189.27911275415894,33.21916313906054
189.45420906567992,1.4670523665363935
189.62962962962962,33.4041895874149
189.80537534754404,53.017667425857134
189.98144712430428,62.60996738797032
190.15784586815226,72.73744991990469
190.3345724907063,57.28810806670092
190.51162790697674,29.835207313992647
190.68901303538178,24.21420803674833
190.8667287977633,46.626165917728656
191.044776119403,62.45316194263304
191.22315592903828,67.18294035456665
191.4018691588785,90.29375354134001
191.5809167446211,146.86269765717245
191.76029962546815,197.7057330709071
191.94001874414244,172.0832959567862
192.12007504690433,115.40393038088352
192.3004694835681,102.94528613196604
192.48120300751881,143.148190346046
192.66227657572907,149.66560095424305
192.8436911487759,74.45426847918259
193.02544769085767,19.30292148431901
193.2075471698113,40.089455573941116
193.38999055712932,113.66834289662579
193.57277882797732,87.04796092836526
193.75591296121098,46.803561306777894
193.93939393939394,48.747524525655656
194.12322274881518,20.371545517655953
194.30740037950665,60.2195951387648
194.49192782526114,78.87435785079032
194.67680608365018,42.97025237262488
194.86203615604185,7.072603892510394
195.04761904761907,8.054626468776267
195.23355576739752,42.2569154478287
195.4198473282443,18.721715666306988
195.6064947468959,26.111618214318565
195.79349904397705,64.34218126116158
195.9808612440191,24.316975784491312
196.1685823754789,4.029176698543402
196.35666347075744,16.324853897213163
196.5451055662188,9.068551946127457
196.73390970220942,39.83636022810839
196.92307692307693,40.42747239910007
197.1126082771896,2.810047205652574
197.30250481695566,8.146579828953584
197.4927675988428,59.29142671987241
197.68339768339766,82.20609111146854
197.8743961352657,61.437768267904765
198.06576402321085,75.44617283813425
198.25750242013552,73.21548054817362
198.44961240310076,11.11142896577381
198.64209505334625,0.9682250888538289
198.83495145631065,4.607552162349235
199.02818270165207,4.215621376311974
199.22178988326846,29.37916339208014
199.4157740993184,39.72375975151819
199.61013645224173,158.22137881556708
199.8048780487805,292.2394579437566
200.0,297.7443136228388
200.19550342130987,402.9206582189949
200.3913894324853,257.53591239302165
200.58765915768853,158.02781817313834
200.78431372549022,79.9357883236873
200.9813542688911,115.45121794199741
201.17878192534383,202.5287079072691
201.37659783677483,277.73648263335406
201.5748031496063,220.59854632501552
201.77339901477833,163.706217419048
201.9723865877712,24.711568639333482
202.1717670286278,12.924679892008742
202.3715415019763,18.242039493067598
202.57171117705244,55.96479106108646
202.77227722772278,38.697653164779226
202.97324083250743,9.732408832311418
203.17460317460316,0.4656804005864556
203.37636544190661,11.684308496917298
203.57852882703776,29.32630913501512
203.78109452736314,10.291490559150967
203.98406374501994,12.568630027775974
204.1874376869392,28.508830830768385
204.39121756487026,25.893181745152184
204.5954045954046,52.62054404635864
204.79999999999998,34.16715206578763
205.005005005005,132.3109499772881
205.21042084168334,46.10944464266346
205.41624874623875,13.925500468923236
205.62248995983938,11.522485035041667
205.8291457286432,54.013128971753154
206.03621730382292,119.81398166217178
206.24370594159112,10.79345437554401
206.4516129032258,39.57523183312276
206.65993945509584,82.26982668695715
206.86868686868684,122.68923194734502
207.07785642062692,26.107705907629743
207.28744939271257,2.4159339448132537
