"Wavelength, nm",Intensity
136.44237175216523,2.409391957022041e-20
136.53333333333333,3.396735155862979e-20
136.62441627751835,5.918455326637212e-20
136.71562082777035,7.812603359254231e-20
136.80694722778892,1.2343826822473108e-19
136.89839572192514,1.9213258357583682e-19
136.98996655518394,1.9159005130382825e-19
137.08165997322624,4.753672377394442e-18
137.17347622237108,1.0119081505925788e-16
137.26541554959786,3.0537759416222763e-15
137.35747820254863,6.350806969044297e-14
137.4496644295302,8.741048097775652e-13
137.54197447951645,8.280964596059138e-12
137.63440860215053,5.521940916261585e-11
137.72696704774717,2.857198567444179e-10
137.81965006729476,1.2161481885573108e-09
137.9124579124579,4.027491739612698e-09
138.0053908355795,1.0148858633357663e-08
138.09844908968307,2.1216265503928876e-08
138.19163292847506,3.904322453465635e-08
138.28494260634707,6.028442708110793e-08
138.37837837837836,7.924984593807016e-08
138.47194050033806,1.0219099815651177e-07
138.5656292286874,1.37625006614378e-07
138.65944482058225,1.84595362918971e-07
138.75338753387533,2.512764754895963e-07
138.84745762711862,3.5120453040310265e-07
138.94165535956583,4.6285146510015816e-07
139.03598099117448,5.490476333198558e-07
139.1304347826087,5.813696353118268e-07
139.22501699524133,5.342427603044428e-07
139.31972789115645,4.599922594869245e-07
139.4145677331518,4.2575395464954616e-07
139.50953678474113,4.030494000975747e-07
139.60463531015677,5.07474174109325e-07
139.69986357435198,1.6250929855683904e-06
139.79522184300342,5.813529667783485e-06
139.89071038251367,1.583217241027241e-05
139.98632946001365,3.548947409318814e-05
140.08207934336525,6.861122350035136e-05
140.17796030116358,0.00011244766719813466
140.27397260273972,0.00015727674423754331
140.37011651816314,0.000194202765056051
140.46639231824417,0.0002124427873526859
140.56280027453673,0.00019881223238278045
140.65934065934067,0.00015523127700055634
140.75601374570448,0.00010143738175320915
140.85281980742778,5.454827199553513e-05
140.949759119064,2.147337218801392e-05
141.04683195592284,3.5376176531026276e-06
141.14403859407307,6.770093919618428e-06
141.24137931034483,5.654654388643826e-05
141.33885438233264,0.0001844185036630271
141.4364640883978,0.00038766192234153694
141.53420870767104,0.0006020663196646159
141.6320885200553,0.0007199114032669357
141.73010380622836,0.0006543033743644654
141.8282548476454,0.0004195130655619958
141.92654192654192,0.0001586626303781697
142.0249653259362,1.7713404993747365e-05
142.1235253296322,3.1369277999404446e-05
142.22222222222223,0.00018100573400153236
142.32105628908963,0.0003954451858367056
142.42002781641168,0.0005630403810333074
142.51913709116212,0.0006150371669896
142.6183844011142,0.0005034954292993225
142.7177700348432,0.0002742937774572777
142.81729428172943,9.121898373737565e-05
142.91695743196092,9.007599052752535e-05
143.0167597765363,0.000365249408841761
143.11670160726763,0.0009197285110917068
143.21678321678323,0.0016063574205540598
143.31700489853043,0.002232015588019134
143.4173669467787,0.0026428427197341623
143.5178696566223,0.002829133903840697
143.61851332398317,0.0029206596147297193
143.71929824561403,0.0029369385048362714
143.8202247191011,0.0027244369268280893
143.92129304286718,0.0022421600036958405
144.0225035161744,0.0016493516297103538
144.12385643912737,0.0010451491844531995
144.22535211267606,0.0004988354071601152
144.32699083861874,0.0001741665433829427
144.42877291960508,0.0001321694834103814
144.530698659139,0.00034732582568939457
144.6327683615819,0.0007276534082135677
144.73498233215545,0.0012280935125816319
144.83734087694484,0.0018173159206842575
144.9398443029016,0.0021894348990357036
145.04249291784703,0.002348612440202734
145.14528703047483,0.002374013572827023
145.24822695035462,0.0019302108745378925
145.35131298793468,0.0011253207722753612
145.45454545454544,0.0005021599519523513
145.55792466240226,0.00023955723792874612
145.66145092460883,0.0002851462799802622
145.76512455516016,0.0007523201430446536
145.86894586894587,0.0020057297440079567
145.9729151817534,0.004177254225752619
146.07703281027102,0.007115410326240314
146.18129907209135,0.010742849144695546
146.28571428571428,0.015233260093717052
146.39027877055037,0.020280328651350453
146.49499284692416,0.024684225442298195
146.59985683607732,0.02938899688622058
146.7048710601719,0.034109297713779886
146.8100358422939,0.036573484766382676
146.91535150645623,0.03831370329912504
147.0208183776023,0.03650376420441747
147.1264367816092,0.028412125450437326
147.23220704529115,0.020434523964493682
147.33812949640287,0.01192124163851571
147.4442044636429,0.0048332402156171
147.55043227665706,0.0036876186302137477
147.6568132660418,0.00947542778197039
147.76334776334778,0.019956234047442314
147.87003610108303,0.020094974560602104
147.97687861271675,0.017622750752613235
148.08387563268258,0.0508622796626355
148.19102749638205,0.09997544613747636
148.29833454018825,0.09058588412071987
148.40579710144928,0.05887091006926049
148.51341551849166,0.1292501048026626
148.6211901306241,0.21208306687068243
148.72912127814087,0.15123601133337308
148.8372093023256,0.13660982320095164
148.94545454545454,0.25123650335510184
149.0538573508006,0.2443559091350839
149.16241806263656,0.1872522190687923
149.27113702623907,0.26537206723938833
149.38001458789202,0.28160839685898015
149.4890510948905,0.18237536519735226
149.59824689554418,0.1894135038247968
149.70760233918128,0.24430216665650895
149.81711777615214,0.18201457333802515
149.9267935578331,0.10233960815952908
150.03663003663004,0.11313010552997654
150.1466275659824,0.12872728365051134
150.25678650036684,0.08211019534212394
150.36710719530103,0.0488522606741246
150.47759000734754,0.06203607582082891
150.58823529411762,0.055343426113609547
150.69904341427517,0.02398008608232529
150.8100147275405,0.02338320600080446
150.92114959469419,0.04149847699357296
151.03244837758112,0.02570492246333928
151.1439114391144,0.0132123269089658
151.25553914327915,0.04332296360671041
151.3673318551367,0.042766740627014806
151.47928994082838,0.011525911426097782
151.59141376757958,0.033590402979250214
151.7037037037037,0.05911078626085939
151.81616011860638,0.03318683132138446
151.92878338278933,0.007567716453120788
152.04157386785448,0.010299076772949776
152.15453194650817,0.014658562928396552
152.26765799256503,0.011301502834197149
152.38095238095235,0.007708904202922337
152.4944154877141,0.005687022929271744
152.6080476900149,0.003471864304573335
152.72184936614468,0.00519800806000991
152.8358208955224,0.009629795936381285
152.9499626587005,0.008053468650360442
153.0642750373692,0.004839885842462164
153.1787584143605,0.0062384154873071146
153.29341317365268,0.006695773903890542
153.40823970037454,0.0033082755917655336
153.5232383808096,0.00037663025366991166
153.6384096024006,0.002161372095950389
153.75375375375376,0.0035058185901231036
153.86927122464311,0.009182026307102147
153.98496240601503,0.028598943836206717
154.10082768999246,0.037517753054170246
154.2168674698795,0.022137735630855238
154.33308214016577,0.00397945019405534
154.4494720965309,0.003321984124091722
154.56603773584905,0.024136270977344353
154.68277945619334,0.04428234329050676
154.79969765684052,0.04092960647281458
154.91679273827532,0.017754533500711243
155.0340651021953,0.0003201785631784406
155.15151515151516,0.02593088237197561
155.2691432903715,0.08986449209870763
155.38694992412746,0.11312730944520479
155.50493545937738,0.06353554611260825
155.62310030395136,0.020061523414913622
155.74144486692012,0.02590696901770853
155.8599695585997,0.037488178798063945
155.97867479055597,0.031754611735334906
156.09756097560975,0.028635408788632966
156.21662852784135,0.028837243202610722
156.33587786259542,0.00419242892606122
156.45530939648586,0.03023913122863211
156.5749235474006,0.09899888047575857
156.69472073450652,0.07455799052467894
156.8147013782542,0.043244693721907854
156.93486590038313,0.0986864684236921
157.05521472392638,0.15845791097707848
157.17574827321565,0.1539643562028221
157.29646697388634,0.1236059960252426
157.4173712528824,0.14573160641472768
157.53846153846155,0.149207129010208
157.65973826020013,0.09423147064057737
157.78120184899845,0.04904178853799123
157.9028527370856,0.09968338849240399
158.02469135802468,0.3081023939146859
158.14671814671814,0.3993372291606172
158.26893353941267,0.1827734374661925
158.39133797370457,0.014734583796256704
158.5139318885449,0.2589476497668779
158.63671572424477,0.6565959737250407
158.7596899224806,0.6392087716217667
158.88285492629947,0.23478307581517865
159.0062111801242,0.012078280410260614
159.12975912975912,0.21521956134822134
159.25349922239502,0.5868374891576449
159.37743190661476,0.6832350869550474
159.50155763239874,0.35636060001720954
159.62587685113016,0.09294966950630126
159.7503900156006,0.20014089436443874
159.87509758001562,0.4935627914018179
160.0,0.8127894650831946
160.12509773260362,0.77977683677713
160.2503912363067,0.4072473916353741
160.37588097102582,0.24980240642609639
160.5015673981191,0.36631605769763675
160.62745098039213,0.5227815101020697
160.7535321821036,0.49402506100368065
160.87981146897093,0.30980484463057745
161.0062893081761,0.29439712441806354
161.13296616837135,0.3316538798021341
161.25984251968504,0.1628060680323139
161.38691883372735,0.0264979889094735
161.51419558359618,0.13208844467044398
161.64167324388316,0.22962445152410918
161.7693522906793,0.11900740164972945
161.89723320158103,0.01886268272124529
162.0253164556962,0.03629302842912707
162.15360253365006,0.03109402261330866
162.28209191759112,0.00660128183725563
162.41078509119745,0.03378358587435868
162.53968253968253,0.10623492654892132
162.66878474980143,0.09182619910502361
162.79809220985692,0.010511925411494344
162.92760540970565,0.037461737841952406
163.05732484076432,0.11724488351464316
163.18725099601593,0.11512896690060477
163.31738437001593,0.05230169326936395
163.44772545889865,0.011131528967086605
163.57827476038338,0.007232299259185769
163.709032773781,0.012784069523072327
163.84,0.02583836580228182
163.97117694155327,0.02366312288997981
164.1025641025641,0.004499516002516113
164.23416198877305,0.02434670561238632
164.3659711075441,0.11084716960357875
164.49799196787149,0.17508711115063952
164.63022508038586,0.10522834688963241
164.76267095736122,0.004646234759574654
164.89533011272144,0.06873520854504511
165.02820306204674,0.2042081921094833
165.16129032258064,0.2061018618942078
165.29459241323647,0.10498868908457994
165.4281098546042,0.035601614122563914
165.56184316895713,0.060271456781818035
165.6957928802589,0.11574646614027738
165.82995951417004,0.15892997544509208
165.9643435980551,0.1614469678376022
166.09894566098947,0.08275158869789032
166.23376623376623,0.014565904013751197
166.36880584890332,0.06073640274461398
166.5040650406504,0.1842850328765325
166.63954434499593,0.2538438398565594
166.77524429967426,0.2176651332532603
166.9111654441728,0.1691678827851013
167.047308319739,0.19074631317158794
167.18367346938777,0.2645016271877138
167.3202614379085,0.3065701155647167
167.45707277187245,0.2669897885531434
167.59410801963992,0.21067495614832304
167.7313677313677,0.20108866313243262
167.86885245901638,0.18790516189219017
168.00656275635768,0.14909708584632614
168.14449917898193,0.1271881537633057
168.28266228430567,0.10950609904715518
168.42105263157896,0.0714915778545874
168.559670781893,0.08216530416402054
168.6985172981878,0.18017899187460337
168.83759274525966,0.2243359039980977
168.97689768976898,0.1273007242647964
169.11643270024774,0.03556628400578531
169.25619834710741,0.09877289043440042
169.39619520264682,0.2516756552918745
169.53642384105962,0.2889352134146128
169.67688483844242,0.15652364164480945
169.81757877280262,0.025944516794186533
169.95850622406635,0.0477795469404571
170.09966777408638,0.1754547903323275
170.24106400665005,0.23253729506995954
170.3826955074875,0.19243811153234008
170.52456286427974,0.16146704777413
170.66666666666666,0.16554384619957654
170.8090075062552,0.1691205289515619
170.9515859766277,0.14996590746242566
171.09440267335003,0.12550033395491286
171.23745819397996,0.13713106381646778
171.3807531380753,0.17460480824480984
171.52428810720266,0.175341632486895
171.66806370494552,0.1344175787542201
171.81208053691276,0.12885520079016966
171.95633921074725,0.16646297632223267
172.10084033613444,0.15362649547694782
172.24558452481077,0.07609748439665735
172.3905723905724,0.018257859820554355
172.5358045492839,0.013194060912597474
172.681281618887,0.015190104073420444
172.82700421940928,0.0018176898360026097
172.97297297297297,0.011340019136458681
173.11918850380385,0.0552563137718398
173.26565143824024,0.07867697208159563
173.41236240474177,0.07434358517980733
173.55932203389833,0.12946014686708437
173.70653095843934,0.25610331012328963
173.85398981324278,0.3436614454296466
174.0016992353441,0.3072138330699047
174.14965986394557,0.17141938885760089
174.2978723404255,0.07115764685743069
174.44633730834755,0.14459074782612774
174.59505541346974,0.3346508516020328
174.74402730375425,0.4242072394217834
174.8932536293766,0.341970573933951
175.04273504273505,0.19044997726066618
175.1924721984602,0.05241617299872132
175.34246575342465,0.020603678351042296
175.49271636675235,0.09126274604044424
175.6432246998285,0.12314585944096992
175.79399141630904,0.11528919961576493
175.94501718213058,0.14985652577425837
176.0963026655202,0.15127519036351694
176.24784853700515,0.15701027450882235
176.3996554694229,0.19313149067380933
176.55172413793102,0.12130471337826833
176.70405522001724,0.36979932303920876
176.85664939550952,1.1128008643098537
177.00950734658602,1.2868144281166938
177.16262975778545,1.148511781719712
177.3160173160173,1.5008600067850393
177.46967071057193,1.3312209787792586
177.62359063313096,1.9855587775363193
177.77777777777777,4.723471908618917
177.93223284100782,5.1677299554635185
178.08695652173913,4.250627742094572
178.24194952132288,5.8326061053218305
178.397212543554,5.116930426729712
178.55274629468178,3.8481683331708227
178.70855148342056,8.96472341866141
178.86462882096066,9.801731600062611
179.02097902097898,4.402975098734122
179.17760279965006,8.268214561204369
179.33450087565674,10.73484319247063
179.4916739702016,3.02287883309005
179.64912280701753,5.907343272390249
179.80684811237927,12.271734767784887
179.96485061511424,3.461531960156024
180.12313104661388,2.9791052029701457
180.28169014084506,7.075155294167111
180.44052863436124,1.182419281984292
180.59964726631395,4.068169728709841
180.75904677846424,10.50126739608502
180.91872791519435,1.3176216261174136
181.07869142351902,16.626724289737588
181.23893805309734,15.368050800628803
181.39946855624444,8.59089350446481
181.56028368794324,31.33045350479958
181.72138420585628,48.267218078717754
181.88277087033748,12.820490564886486
182.04444444444445,41.44633829554067
182.20640569395016,26.047959932378834
182.3686553873553,90.95270057449962
182.53119429590015,12.954176751576691
182.69402319357712,34.21209845640044
182.85714285714286,10.480870147423813
183.0205540661305,13.909625658872294
183.18425760286226,32.111171931219516
183.34825425246197,192.65395653724082
183.51254480286738,114.32273587096347
183.67713004484304,506.098016891919
183.84201077199282,645.0820247254394
184.00718778077265,789.3118943953864
184.1726618705036,803.8345926180771
184.33843384338437,1083.861285666858
184.5045045045045,1083.4456016409297
184.67087466185754,925.9593457164982
184.83754512635377,844.7357111813582
185.0045167118338,815.3425067870562
185.17179023508135,802.4182747380337
185.33936651583707,566.3838571302618
185.5072463768116,457.60073952173013
185.675430643699,521.7506276130163
185.84392014519057,425.54984755116277
186.01271571298818,101.9227030473974
186.1818181818182,57.035522660392935
186.3512283894449,74.77698620515554
186.52094717668484,32.33845665305845
186.69097538742025,32.05050710258405
186.86131386861314,3.5746919865792006
187.03196347031962,85.42312860636335
187.20292504570384,101.62706574917989
187.37419945105214,26.75716447170513
187.54578754578753,128.8990071798573
187.71769019248396,700.979953992069
187.88990825688072,675.0034026819533
188.06244260789717,95.18548040190798
188.23529411764707,375.4077499485893
188.40846366145354,553.8165107427948
188.5819521178637,252.24131432795056
188.75576036866357,11.891155450722662
188.92988929889296,224.15379953253884
189.10433979686056,294.678703253801
189.27911275415894,104.10344192271307
189.45420906567992,34.986476895632634
189.62962962962962,16.515423992568497
189.80537534754404,0.7784154042576891
189.98144712430428,16.74690030373111
190.15784586815226,57.96362043185904
190.3345724907063,170.5273778951599
190.51162790697674,276.8486223302745
190.68901303538178,225.7435135072115
190.8667287977633,75.45090678964615
191.044776119403,3.430525594670743
191.22315592903828,53.310552947373864
191.4018691588785,199.79427449492812
191.5809167446211,312.5150761501524
191.76029962546815,262.38374834125125
191.94001874414244,162.80647255855976
192.12007504690433,126.36656455123848
192.3004694835681,144.18183052206592
192.48120300751881,185.01702961970673
192.66227657572907,228.50760154399666
192.8436911487759,244.87334449410702
193.02544769085767,130.63910368476198
193.2075471698113,1.862604843607244
193.38999055712932,196.16165982739025
193.57277882797732,357.16180856373245
193.75591296121098,410.88366109743583
193.93939393939394,294.546868990533
194.12322274881518,21.81120560256423
194.30740037950665,98.76245377901387
194.49192782526114,210.57791785858495
194.67680608365018,47.02648945301425
194.86203615604185,45.35776280282233
195.04761904761907,84.8676643092836
195.23355576739752,47.48097382792287
195.4198473282443,78.5460375124225
195.6064947468959,246.64796967200442
195.79349904397705,291.6612737927389
195.9808612440191,215.17664930855864
196.1685823754789,163.04676686603116
196.35666347075744,63.461721482550125
196.5451055662188,100.3119927899682
196.73390970220942,363.4918728273341
196.92307692307693,454.9709430878224
197.1126082771896,166.24740854524552
197.30250481695566,343.96221667790263
197.4927675988428,354.3335330977497
197.68339768339766,106.52158932292168
197.8743961352657,187.27524786766227
198.06576402321085,134.12069683392411
198.25750242013552,134.95888348185645
198.44961240310076,196.18922450575724
198.64209505334625,65.6465421698303
198.83495145631065,104.50637654093684
199.02818270165207,339.88945860312765
199.22178988326846,256.920441561987
199.4157740993184,193.83117284866543
199.61013645224173,272.62184160618597
199.8048780487805,104.38983303085531
200.0,8.392871393854847
200.19550342130987,57.64422487847785
200.3913894324853,15.05089235216397
200.58765915768853,136.35152992886145
200.78431372549022,719.9643342721631
200.9813542688911,804.3375352110471
201.17878192534383,228.71876516729773
201.37659783677483,210.31066212673613
201.5748031496063,524.0545878194058
201.77339901477833,305.6181081361744
201.9723865877712,21.976684916863217
202.1717670286278,156.9266837932358
202.3715415019763,114.815511871995
202.57171117705244,15.708501449524386
202.77227722772278,0.3335055455972174
202.97324083250743,10.263411785423601
203.17460317460316,3.604257124911221
203.37636544190661,7.984356356206722
203.57852882703776,31.136097521217756
203.78109452736314,19.675142123565053
203.98406374501994,3.487334230721153
204.1874376869392,1.768464438174316
204.39121756487026,5.070779911710581
204.5954045954046,14.22906902730268
204.79999999999998,5.611382039116673
205.005005005005,15.639006688871387
205.21042084168334,36.75680620553895
205.41624874623875,18.750773410878168
205.62248995983938,72.74891301136212
205.8291457286432,30.33995237153859
206.03621730382292,64.56384183331843
206.24370594159112,44.778975625001834
206.4516129032258,10.538395336644777
206.65993945509584,27.210153427356463
206.86868686868684,1.1668884444424188
207.07785642062692,0.1060748451830388
207.28744939271257,9.149862388759349
207.49746707193518,10.266212075960093
207.7079107505071,2.3976977921533527
207.9187817258883,0.5297007877039807
208.130081300813,7.061535225163083
