"Wavelength, nm",Intensity
136.44237175216523,4.410609766654376e-24
136.53333333333333,6.030951281063242e-24
136.62441627751835,8.556955742719475e-24
136.71562082777035,1.2123188116038459e-23
136.80694722778892,1.7075695782665467e-23
136.89839572192514,2.4897406930250883e-23
136.98996655518394,3.596311865395876e-23
137.08165997322624,5.158181352695785e-23
137.17347622237108,6.742874301217529e-23
137.26541554959786,3.1281248025558813e-23
137.35747820254863,7.954656197488494e-23
137.4496644295302,3.579276968593257e-21
137.54197447951645,3.13846769485347e-20
137.63440860215053,9.346303612534536e-20
137.72696704774717,6.997994887720323e-19
137.81965006729476,1.1909458138194804e-18
137.9124579124579,5.523973065609106e-18
138.0053908355795,1.6688662722869073e-17
138.09844908968307,5.413681902655431e-17
138.19163292847506,8.464379254811127e-17
138.28494260634707,2.25764103754864e-16
138.37837837837836,4.0951587335475727e-16
138.47194050033806,8.91196279546199e-16
138.5656292286874,1.2823479945788912e-15
138.65944482058225,2.3708566743367946e-15
138.75338753387533,4.092253270305457e-15
138.84745762711862,6.7604239479686504e-15
138.94165535956583,1.0849544268833364e-14
139.03598099117448,1.642416443230842e-14
139.1304347826087,2.5854140682546993e-14
139.22501699524133,3.6963801642045445e-14
139.31972789115645,5.762289319162814e-14
139.4145677331518,7.210502799396335e-14
139.50953678474113,1.0509980617410151e-13
139.60463531015677,1.4668714160688908e-13
139.69986357435198,2.0076490204744778e-13
139.79522184300342,2.30189907773008e-13
139.89071038251367,3.841675147772325e-13
139.98632946001365,3.7854111700504867e-13
140.08207934336525,5.389276402326437e-13
140.17796030116358,8.507767329923049e-13
140.27397260273972,9.693081576707192e-13
140.37011651816314,1.17127684499356e-12
140.46639231824417,1.5331272265714222e-12
140.56280027453673,1.8670937112521653e-12
140.65934065934067,2.1451219535303365e-12
140.75601374570448,2.6187020932148355e-12
140.85281980742778,3.140699732889881e-12
140.949759119064,4.2306287607153605e-12
141.04683195592284,5.082840100202661e-12
141.14403859407307,5.691786948380978e-12
141.24137931034483,7.0480936765175176e-12
141.33885438233264,8.345253481545283e-12
141.4364640883978,1.0646802204810852e-11
141.53420870767104,1.0879721170629953e-11
141.6320885200553,1.3217844744447987e-11
141.73010380622836,1.591076065833809e-11
141.8282548476454,1.967506840661555e-11
141.92654192654192,2.210554764225832e-11
142.0249653259362,2.740877307986735e-11
142.1235253296322,3.0173355979038684e-11
142.22222222222223,3.627623619895376e-11
142.32105628908963,4.1898159097421264e-11
142.42002781641168,4.924282579987498e-11
142.51913709116212,5.559824966677994e-11
142.6183844011142,6.43959672155977e-11
142.7177700348432,7.53592812187497e-11
142.81729428172943,8.976749557502335e-11
142.91695743196092,1.019789806972257e-10
143.0167597765363,1.1712870433801644e-10
143.11670160726763,1.3546485979259685e-10
143.21678321678323,1.5959306003951367e-10
143.31700489853043,1.807693004518578e-10
143.4173669467787,2.0710086223329464e-10
143.5178696566223,2.393711181655811e-10
143.61851332398317,2.830224820076163e-10
143.71929824561403,3.1962928018933907e-10
143.8202247191011,3.6997614866657406e-10
143.92129304286718,4.2184841369312853e-10
144.0225035161744,4.814285608030915e-10
144.12385643912737,5.672324198460367e-10
144.22535211267606,6.34573783941078e-10
144.32699083861874,7.309675802020826e-10
144.42877291960508,8.22345408642108e-10
144.530698659139,9.187571655937725e-10
144.6327683615819,1.035097888750369e-09
144.73498233215545,1.1615809084967363e-09
144.83734087694484,1.2765520428533656e-09
144.9398443029016,1.4247313032538714e-09
145.04249291784703,1.5487067152041007e-09
145.14528703047483,1.7082460346096243e-09
145.24822695035462,1.8433276695461794e-09
145.35131298793468,1.9736355398665843e-09
145.45454545454544,2.120433521703728e-09
145.55792466240226,2.251626519161562e-09
145.66145092460883,2.3830156181495108e-09
145.76512455516016,2.5114023402125444e-09
145.86894586894587,2.617712257615799e-09
145.9729151817534,2.7315371364956613e-09
146.07703281027102,2.8509100369979016e-09
146.18129907209135,2.941542241144632e-09
146.28571428571428,3.031855435171892e-09
146.39027877055037,3.1693734981378515e-09
146.49499284692416,3.2616455637031303e-09
146.59985683607732,3.2792350482719937e-09
146.7048710601719,3.45583858588084e-09
146.8100358422939,3.5654511554411853e-09
146.91535150645623,3.6348488109612455e-09
147.0208183776023,4.154951723127054e-09
147.1264367816092,4.630314635636879e-09
147.23220704529115,4.000325091548886e-09
147.33812949640287,3.911237005137601e-09
147.4442044636429,6.385981415612471e-09
147.55043227665706,5.565366687568076e-09
147.6568132660418,8.458669186657031e-09
147.76334776334778,1.6024865046469637e-08
147.87003610108303,6.747132672477322e-09
147.97687861271675,1.0274903565492602e-09
148.08387563268258,6.4842938161567015e-09
148.19102749638205,2.0696536145739514e-09
148.29833454018825,2.876292670770474e-09
148.40579710144928,6.14087286303058e-09
148.51341551849166,5.198063214420189e-09
148.6211901306241,3.2782163765616417e-09
148.72912127814087,3.3144281040654056e-10
148.8372093023256,1.1828008152788952e-08
148.94545454545454,1.93548379881365e-08
149.0538573508006,6.643455954740535e-09
149.16241806263656,2.422481194864847e-09
149.27113702623907,6.450509830745049e-09
149.38001458789202,2.024328664186502e-09
149.4890510948905,4.241802929117728e-09
149.59824689554418,1.6792290396044732e-08
149.70760233918128,1.789096901069575e-08
149.81711777615214,9.379689031063908e-09
149.9267935578331,8.22106805391318e-09
150.03663003663004,3.969316134238907e-09
150.1466275659824,1.973424091904686e-09
150.25678650036684,1.5012157070959754e-08
150.36710719530103,1.2284413892628564e-08
150.47759000734754,2.0302286838297872e-10
150.58823529411762,6.245304205667084e-09
150.69904341427517,9.217231131532644e-09
150.8100147275405,2.9075079107302313e-09
150.92114959469419,2.625566810396725e-09
151.03244837758112,2.2978290943662465e-08
151.1439114391144,3.8674827098561655e-08
151.25553914327915,1.8749538320620712e-08
151.3673318551367,3.189866185761884e-08
151.47928994082838,6.458764703751545e-08
151.59141376757958,2.7917824546926046e-08
151.7037037037037,1.1965136427359582e-08
151.81616011860638,4.8615615745651444e-08
151.92878338278933,2.687781471860733e-08
152.04157386785448,1.2954980753166797e-08
152.15453194650817,6.336589609858834e-08
152.26765799256503,5.883210443288394e-08
152.38095238095235,2.9985845466179116e-08
152.4944154877141,5.3116858549724746e-08
152.6080476900149,4.819354301442919e-08
152.72184936614468,5.102368367098223e-08
152.8358208955224,7.576658773596549e-08
152.9499626587005,3.4013641402890775e-08
153.0642750373692,2.3867430754769082e-08
153.1787584143605,4.3223497023823734e-08
153.29341317365268,1.5470789459339233e-08
153.40823970037454,4.2753572314420525e-08
153.5232383808096,7.422442891685773e-08
153.6384096024006,6.280654112097109e-08
153.75375375375376,7.875675898823132e-08
153.86927122464311,6.524600846914082e-08
153.98496240601503,3.143131907561617e-08
154.10082768999246,3.528542803805579e-08
154.2168674698795,6.710607008143908e-08
154.33308214016577,5.2859138252594656e-08
154.4494720965309,6.660605309369446e-08
154.56603773584905,1.5020024357899238e-07
154.68277945619334,1.0153950674500533e-07
154.79969765684052,8.558663273570209e-08
154.91679273827532,1.4887912521973832e-07
155.0340651021953,9.728387189906448e-08
155.15151515151516,1.206784873248767e-07
155.2691432903715,1.4951745561541654e-07
155.38694992412746,1.548025700025124e-07
155.50493545937738,1.5632087827776184e-07
155.62310030395136,5.772491287335923e-08
155.74144486692012,5.203652929916997e-08
155.8599695585997,7.908604267981658e-08
155.97867479055597,1.27143846339769e-07
156.09756097560975,6.748490578998775e-08
156.21662852784135,8.429668268084669e-09
156.33587786259542,1.7065721685546e-07
156.45530939648586,4.90746168306656e-07
156.5749235474006,6.830973753123837e-07
156.69472073450652,8.156092512889998e-07
156.8147013782542,2.7483968326859066e-07
156.93486590038313,3.8852639350288554e-08
157.05521472392638,8.703744206883192e-07
157.17574827321565,2.715452733927709e-06
157.29646697388634,3.4626404319316633e-06
157.4173712528824,4.5283903338103176e-06
157.53846153846155,4.649230208635533e-06
157.65973826020013,1.892657339489174e-06
157.78120184899845,3.384627444680023e-07
157.9028527370856,1.2295402766119549e-06
158.02469135802468,3.0949836785354814e-06
158.14671814671814,2.755998930209475e-06
158.26893353941267,6.632163820474293e-06
158.39133797370457,5.210447477904559e-06
158.5139318885449,4.189870718025882e-06
158.63671572424477,2.8584013906104107e-06
158.7596899224806,2.915657535970829e-06
158.88285492629947,1.1951717804005629e-06
159.0062111801242,3.368137704633368e-06
159.12975912975912,4.213646979249671e-07
159.25349922239502,1.6264158742102185e-05
159.37743190661476,2.4900031962706237e-05
159.50155763239874,1.4332716927247631e-05
159.62587685113016,1.41434040689528e-06
159.7503900156006,1.5823937949233358e-07
159.87509758001562,3.97064388884412e-08
160.0,1.1201647700324488e-05
160.12509773260362,1.3654333973514456e-05
160.2503912363067,7.249110177123764e-06
160.37588097102582,8.428474840050585e-06
160.5015673981191,1.9270236565237173e-06
160.62745098039213,3.0497387693750307e-06
160.7535321821036,1.28265705331462e-06
160.87981146897093,8.77824247204325e-07
161.0062893081761,2.52705947701366e-06
161.13296616837135,1.1927161458496764e-05
161.25984251968504,6.391235002422712e-06
161.38691883372735,2.893986182483721e-06
161.51419558359618,1.4467014810660144e-06
161.64167324388316,2.530940105427025e-06
161.7693522906793,5.774365764172718e-07
161.89723320158103,2.308938005632619e-06
162.0253164556962,3.3346749630102725e-07
162.15360253365006,1.67470873199576e-06
162.28209191759112,1.4364271598377324e-07
162.41078509119745,9.425999055090135e-07
162.53968253968253,2.0561498201318496e-07
162.66878474980143,3.8981777206839277e-07
162.79809220985692,1.1688797141198664e-07
162.92760540970565,2.0643360662445453e-07
163.05732484076432,5.111331646002893e-08
163.18725099601593,1.4134098987364623e-07
163.31738437001593,4.4256388730833454e-08
163.44772545889865,9.806860634368035e-08
163.57827476038338,6.559556929886047e-08
163.709032773781,2.357232118376789e-08
163.84,6.821203154694039e-08
163.97117694155327,4.36444608517845e-08
164.1025641025641,2.8811012513241198e-08
164.23416198877305,3.436418848874191e-08
164.3659711075441,1.490534714964008e-08
164.49799196787149,2.8185301774848552e-08
164.63022508038586,3.130660223167969e-08
164.76267095736122,1.6775388632195697e-08
164.89533011272144,2.9411980503577713e-09
165.02820306204674,4.041856568464625e-08
165.16129032258064,2.0250323902880056e-08
165.29459241323647,1.7461312408911078e-08
165.4281098546042,3.183673644288322e-08
165.56184316895713,1.0332060659144154e-08
165.6957928802589,8.502860379654972e-09
165.82995951417004,1.042194900174894e-08
165.9643435980551,1.6204899765015183e-08
166.09894566098947,9.765249416587046e-09
166.23376623376623,7.813747875449568e-09
166.36880584890332,4.32175451205008e-09
166.5040650406504,4.552804635639741e-09
166.63954434499593,5.418877252117159e-09
166.77524429967426,1.591906866526583e-08
166.9111654441728,3.1636223386669786e-09
167.047308319739,2.99051136554581e-09
167.18367346938777,6.8193519641183884e-09
167.3202614379085,6.118734330858062e-10
167.45707277187245,6.634391485445772e-09
167.59410801963992,5.593471838916876e-09
167.7313677313677,3.969656832833437e-09
167.86885245901638,7.051262434364385e-10
168.00656275635768,1.0701927719888428e-08
168.14449917898193,1.4691674370978744e-08
168.28266228430567,4.334949694192005e-09
168.42105263157896,4.030552496375989e-09
168.559670781893,2.0098286572439303e-09
168.6985172981878,2.5546425189065978e-09
168.83759274525966,8.761828383253954e-09
168.97689768976898,7.747883721126948e-09
169.11643270024774,5.043997911849186e-09
169.25619834710741,8.37405783503947e-09
169.39619520264682,1.0193663416299292e-08
169.53642384105962,2.7154158570653343e-09
169.67688483844242,4.23281371027764e-09
169.81757877280262,1.2061822572951208e-08
169.95850622406635,8.946180785228398e-09
170.09966777408638,4.444131413189413e-09
170.24106400665005,6.572654858191256e-10
170.3826955074875,2.579321044020315e-09
170.52456286427974,8.29568712974205e-09
170.66666666666666,1.0627354231545858e-08
170.8090075062552,5.0918170152869295e-09
170.9515859766277,2.8390085852270874e-09
171.09440267335003,3.72915056862262e-09
171.23745819397996,5.882776520611095e-09
171.3807531380753,9.832757087194147e-09
171.52428810720266,8.398917143635493e-09
171.66806370494552,3.899686572089591e-09
171.81208053691276,2.357219717505594e-09
171.95633921074725,1.022160799290347e-09
172.10084033613444,4.448573092195821e-09
172.24558452481077,5.731977811861313e-09
172.3905723905724,5.194895623340702e-09
172.5358045492839,2.668030497668784e-09
172.681281618887,3.0300041530763473e-09
172.82700421940928,9.453645012846673e-09
172.97297297297297,2.129018570055433e-09
173.11918850380385,2.0859726128409355e-09
173.26565143824024,2.102841246302124e-09
173.41236240474177,4.7693093962288825e-09
173.55932203389833,7.260432028672471e-09
173.70653095843934,1.7746668134075832e-10
173.85398981324278,2.6397905646503404e-09
174.0016992353441,3.8506825310764905e-09
174.14965986394557,5.147437019673113e-09
174.2978723404255,2.144591760651859e-09
174.44633730834755,1.774459689207996e-10
174.59505541346974,7.188547955978603e-10
174.74402730375425,5.30728790210863e-09
174.8932536293766,8.561654715173917e-09
175.04273504273505,6.89257329182509e-09
175.1924721984602,6.1762673989733045e-09
175.34246575342465,3.0225743123537935e-09
175.49271636675235,1.618912190526153e-10
175.6432246998285,2.1916047165015737e-09
175.79399141630904,5.359805696366717e-09
175.94501718213058,4.651504066103811e-09
176.0963026655202,1.904501360363248e-09
176.24784853700515,1.2201785156482577e-08
176.3996554694229,6.300000305526656e-09
176.55172413793102,8.685563964861397e-11
176.70405522001724,1.9580130460977884e-09
176.85664939550952,1.6067446598693886e-09
177.00950734658602,1.8976131737563851e-10
177.16262975778545,2.671188616011394e-09
177.3160173160173,5.9411574331637095e-09
177.46967071057193,7.479107153964226e-10
177.62359063313096,8.536413260113579e-10
177.77777777777777,4.86196730940663e-09
177.93223284100782,5.5038791398055295e-09
178.08695652173913,1.5540045955686206e-09
178.24194952132288,1.4253431945254327e-08
178.397212543554,5.474110891913585e-09
178.55274629468178,3.4289225067518007e-09
178.70855148342056,8.052425236112072e-09
178.86462882096066,3.112338222969327e-09
179.02097902097898,3.991816863536423e-09
179.17760279965006,9.874029137272443e-09
179.33450087565674,5.162737763263554e-09
179.4916739702016,1.5183361646884605e-09
179.64912280701753,4.5300721513184396e-09
179.80684811237927,2.867316835630898e-09
179.96485061511424,3.7218833649718138e-09
180.12313104661388,9.467934315954992e-09
180.28169014084506,1.9446958880776565e-09
180.44052863436124,2.6910455796524934e-09
180.59964726631395,2.874009229520193e-09
180.75904677846424,2.236545308545958e-09
180.91872791519435,1.0547760691272726e-08
181.07869142351902,4.120129687345123e-09
181.23893805309734,2.9598123951995275e-09
181.39946855624444,1.67525030425545e-09
181.56028368794324,3.8207420954185004e-10
181.72138420585628,4.9347928936944545e-09
181.88277087033748,3.963997128848272e-09
182.04444444444445,9.793105832034956e-11
182.20640569395016,3.032942168257861e-10
182.3686553873553,1.5656763564128782e-09
182.53119429590015,7.155820511133427e-09
182.69402319357712,6.555545456291212e-09
182.85714285714286,6.112499514389939e-09
183.0205540661305,5.330395855510218e-09
183.18425760286226,6.302223695663475e-09
183.34825425246197,8.678589596908405e-09
183.51254480286738,2.3938751875418793e-09
183.67713004484304,8.380486426809415e-10
183.84201077199282,2.7118516938295466e-09
184.00718778077265,6.986382756259359e-10
184.1726618705036,6.031765003349151e-09
184.33843384338437,1.2994747911126993e-08
184.5045045045045,3.0058211127644385e-09
184.67087466185754,2.813722555679919e-09
184.83754512635377,1.887573600854285e-09
185.0045167118338,8.893325153384259e-11
185.17179023508135,2.424014939075278e-10
185.33936651583707,2.4234110127609293e-09
185.5072463768116,4.76155952225719e-09
185.675430643699,1.038951099377964e-08
185.84392014519057,1.6651032349836996e-09
186.01271571298818,3.0228791656448246e-09
186.1818181818182,1.8713638641694633e-09
186.3512283894449,1.817019404945287e-09
186.52094717668484,6.0694308733410985e-09
186.69097538742025,2.133533212231352e-09
186.86131386861314,1.2999524955895913e-09
187.03196347031962,2.3350153426233326e-09
187.20292504570384,5.934406088929633e-09
187.37419945105214,2.745835075713233e-09
187.54578754578753,1.269165983310402e-09
187.71769019248396,4.071663985470241e-09
187.88990825688072,1.9635328326514878e-10
188.06244260789717,2.505758876424573e-09
188.23529411764707,6.180094855740923e-09
188.40846366145354,6.757123118346861e-09
188.5819521178637,5.2342488892534745e-09
188.75576036866357,4.754993895387226e-09
188.92988929889296,4.1502444963478124e-09
189.10433979686056,3.600857150283787e-09
189.27911275415894,2.6637951382810704e-09
189.45420906567992,1.831332472118531e-09
189.62962962962962,6.403467327038981e-10
189.80537534754404,5.115117656029657e-09
189.98144712430428,9.710765583201576e-09
190.15784586815226,4.611959634728321e-09
190.3345724907063,1.0077273918837548e-10
190.51162790697674,2.696171344354472e-09
190.68901303538178,3.4685672851906647e-09
190.8667287977633,4.294969866012392e-09
191.044776119403,5.96957900526546e-09
191.22315592903828,2.8836565642782173e-09
191.4018691588785,4.605941814344524e-09
191.5809167446211,2.826051838810525e-09
191.76029962546815,1.406381116882934e-09
191.94001874414244,7.022217884650747e-09
192.12007504690433,3.43029447400923e-09
192.3004694835681,2.1459922139681534e-09
192.48120300751881,5.864156232570101e-09
192.66227657572907,4.5654718083272766e-09
192.8436911487759,3.981014453553004e-09
193.02544769085767,4.7881200449987e-09
193.2075471698113,5.511278528662841e-09
193.38999055712932,8.841424194242471e-09
193.57277882797732,3.2056876538653687e-09
193.75591296121098,8.70183502080156e-10
193.93939393939394,1.2431129537743002e-09
194.12322274881518,3.271955057795914e-09
194.30740037950665,4.216450821309264e-10
194.49192782526114,2.332023644692267e-09
194.67680608365018,3.0217518996398505e-09
194.86203615604185,3.126408596402925e-09
195.04761904761907,1.826541859536746e-09
195.23355576739752,3.0337444660937832e-09
195.4198473282443,4.41425626200575e-09
195.6064947468959,1.0166845920680807e-08
195.79349904397705,3.0766648288569723e-09
195.9808612440191,7.289559192300873e-09
196.1685823754789,2.2623506465870134e-09
196.35666347075744,4.86682353259787e-09
196.5451055662188,1.5267611610265357e-09
196.73390970220942,3.347412868607318e-09
196.92307692307693,1.3729787009114723e-09
197.1126082771896,1.7892474996784005e-09
197.30250481695566,4.3045137793112046e-09
197.4927675988428,1.4368443844216783e-09
197.68339768339766,1.927731494292004e-09
197.8743961352657,2.5055265987482262e-09
198.06576402321085,2.0980171667733105e-09
198.25750242013552,2.5822014015622336e-09
198.44961240310076,4.4998853529304114e-10
198.64209505334625,2.496889318615371e-10
198.83495145631065,1.5180191814562721e-09
199.02818270165207,2.986643750448997e-09
199.22178988326846,1.7553302242176644e-09
199.4157740993184,3.348744495889008e-09
199.61013645224173,2.0182436074422178e-09
199.8048780487805,1.7827563391079555e-10
200.0,2.987637046752715e-09
200.19550342130987,1.512926812508002e-09
200.3913894324853,1.4617633922898662e-09
200.58765915768853,7.738366028214547e-09
200.78431372549022,9.310705535590644e-10
200.9813542688911,5.324319775175307e-09
201.17878192534383,3.766975260415881e-09
201.37659783677483,2.523107269953278e-09
201.5748031496063,4.541477995555041e-09
201.77339901477833,5.954848666694998e-09
