"Wavelength, nm",Intensity
136.44237175216523,1.429796257746619e-26
136.53333333333333,1.5034512231643363e-26
136.62441627751835,2.2411668617512417e-26
136.71562082777035,2.2007910753994e-26
136.80694722778892,2.761601213334267e-26
136.89839572192514,3.780485839345487e-26
136.98996655518394,3.6557253166183837e-26
137.08165997322624,4.5765995479913875e-26
137.17347622237108,8.158554020346846e-24
137.26541554959786,2.054459827695586e-22
137.35747820254863,3.0326505093748473e-21
137.4496644295302,3.1246193478296146e-20
137.54197447951645,2.4044542618210614e-19
137.63440860215053,1.4565885034049092e-18
137.72696704774717,7.230774310411288e-18
137.81965006729476,3.039044455834119e-17
137.9124579124579,1.1143567013216128e-16
138.0053908355795,3.6560596652109523e-16
138.09844908968307,1.0929950517615318e-15
138.19163292847506,3.0164790740876124e-15
138.28494260634707,7.759713505354525e-15
138.37837837837836,1.8719730697522342e-14
138.47194050033806,4.2501162567320094e-14
138.5656292286874,9.108548676680866e-14
138.65944482058225,1.848102503440097e-13
138.75338753387533,3.558611646244009e-13
138.84745762711862,6.518569714303766e-13
138.94165535956583,1.139457522595534e-12
139.03598099117448,1.9070850678265682e-12
139.1304347826087,3.065755979780344e-12
139.22501699524133,4.75056361207403e-12
139.31972789115645,7.12474915634317e-12
139.4145677331518,1.0383130982214022e-11
139.50953678474113,1.475560497346464e-11
139.60463531015677,2.052022950159448e-11
139.69986357435198,2.8031835819801385e-11
139.79522184300342,3.7773693392110567e-11
139.89071038251367,5.046382977586317e-11
139.98632946001365,6.724259908456751e-11
140.08207934336525,8.996285922792732e-11
140.17796030116358,1.21646998149097e-10
140.27397260273972,1.671547220732794e-10
140.37011651816314,2.3404751844276193e-10
140.46639231824417,3.3358285228455547e-10
140.56280027453673,4.817088466905272e-10
140.65934065934067,6.999633131842272e-10
140.75601374570448,1.0161977331941245e-09
140.85281980742778,1.4649281532393152e-09
140.949759119064,2.086839745800499e-09
141.04683195592284,2.9269193054676964e-09
141.14403859407307,4.030791155441302e-09
141.24137931034483,5.4385719763818685e-09
141.33885438233264,7.176269276436662e-09
141.4364640883978,9.245395495968939e-09
141.53420870767104,1.1610829144988683e-08
141.6320885200553,1.418800500384956e-08
141.73010380622836,1.683187334987428e-08
141.8282548476454,1.9330599631558887e-08
141.92654192654192,2.1408237029409998e-08
142.0249653259362,2.2742327994927012e-08
142.1235253296322,2.300205761052729e-08
142.22222222222223,2.1906432799633284e-08
142.32105628908963,1.9303327627030568e-08
142.42002781641168,1.5275204779134685e-08
142.51913709116212,1.0265904383051792e-08
142.6183844011142,5.217407540480341e-09
142.7177700348432,1.7078054381438734e-09
142.81729428172943,2.0749649578643646e-09
142.91695743196092,9.507768765896118e-09
143.0167597765363,2.809542587296433e-08
143.11670160726763,6.283790071999163e-08
143.21678321678323,1.1961530602520794e-07
143.31700489853043,2.0512873237223844e-07
143.4173669467787,3.268509164875892e-07
143.5178696566223,4.93022913589243e-07
143.61851332398317,7.127912550665007e-07
143.71929824561403,9.965892571839658e-07
143.8202247191011,1.356797811617488e-06
143.92129304286718,1.808766388482332e-06
144.0225035161744,2.372246543256435e-06
144.12385643912737,3.0731499858521636e-06
144.22535211267606,3.945542023644776e-06
144.32699083861874,5.033895516242475e-06
144.42877291960508,6.395429334074461e-06
144.530698659139,8.101993862675703e-06
144.6327683615819,1.0241766164344464e-05
144.73498233215545,1.2920937065536614e-05
144.83734087694484,1.626362355419256e-05
144.9398443029016,2.0411383792624144e-05
145.04249291784703,2.552550071878521e-05
145.14528703047483,3.178639507362791e-05
145.24822695035462,3.939112392613106e-05
145.35131298793468,4.856247207231246e-05
145.45454545454544,5.955503457263152e-05
145.55792466240226,7.26464337189654e-05
145.66145092460883,8.815590634536359e-05
145.76512455516016,0.00010646995319748146
145.86894586894587,0.00012800835292107042
145.9729151817534,0.00015322949968092165
146.07703281027102,0.00018269791039216663
146.18129907209135,0.00021699747572910742
146.28571428571428,0.00025664516075462934
146.39027877055037,0.0003022420335214035
146.49499284692416,0.00035436309479816683
146.59985683607732,0.0004132430350738921
146.7048710601719,0.00047906413023448055
146.8100358422939,0.0005520219889706624
146.91535150645623,0.0006316287192853973
147.0208183776023,0.0007170995605334066
147.1264367816092,0.0008080073377687118
147.23220704529115,0.000903176095202632
147.33812949640287,0.0010010260581053507
147.4442044636429,0.0011011934175411708
147.55043227665706,0.001202417198701325
147.6568132660418,0.0013023946742374483
147.76334776334778,0.0014026158681004534
147.87003610108303,0.0015050511077676731
147.97687861271675,0.0016064951527708475
148.08387563268258,0.0017081973311958204
148.19102749638205,0.0018190566887622294
148.29833454018825,0.0019397221861994426
148.40579710144928,0.0020679520462074685
148.51341551849166,0.002219574728712636
148.6211901306241,0.0024113355745555894
148.72912127814087,0.002638289168344957
148.8372093023256,0.002899133386843049
148.94545454545454,0.003215126059668444
149.0538573508006,0.0036071004358628343
149.16241806263656,0.004084559840025074
149.27113702623907,0.004652580958940903
149.38001458789202,0.0053147128702697504
149.4890510948905,0.006091395704992482
149.59824689554418,0.0070157648568268905
149.70760233918128,0.00808362083729905
149.81711777615214,0.009262666175736055
149.9267935578331,0.010560437859112889
150.03663003663004,0.012002573938384718
150.1466275659824,0.013562623181427726
150.25678650036684,0.01518910519031901
150.36710719530103,0.0168608925525496
150.47759000734754,0.018575466393829558
150.58823529411762,0.020313804394659657
150.69904341427517,0.022000435303393726
150.8100147275405,0.023531374312679737
150.92114959469419,0.02492897300808546
151.03244837758112,0.026319911111223983
151.1439114391144,0.02760274820641173
151.25553914327915,0.028452221652538925
151.3673318551367,0.02890113082354702
151.47928994082838,0.02942161705672988
151.59141376757958,0.030041750588633773
151.7037037037037,0.0300493012727873
151.81616011860638,0.029210466750409107
151.92878338278933,0.0284998960789441
152.04157386785448,0.028556221055574045
152.15453194650817,0.028197407810339088
152.26765799256503,0.02619079907377486
152.38095238095235,0.023896760131685492
152.4944154877141,0.023526448872319465
152.6080476900149,0.02391802179119835
152.72184936614468,0.021802399745928087
152.8358208955224,0.017958318249495977
152.9499626587005,0.01707421171347353
153.0642750373692,0.019428955204241108
153.1787584143605,0.018996584512740364
153.29341317365268,0.013927568209229479
153.40823970037454,0.011596409868616805
153.5232383808096,0.016245166869887574
153.6384096024006,0.0194430833409586
153.75375375375376,0.013596226076738587
153.86927122464311,0.007447915236242696
153.98496240601503,0.012755347682856714
154.10082768999246,0.021493872421772087
154.2168674698795,0.017024275340216576
154.33308214016577,0.005202581724304418
154.4494720965309,0.008012025299227388
154.56603773584905,0.02373419870480653
154.68277945619334,0.025269537834327886
154.79969765684052,0.008152989395318213
154.91679273827532,0.004037690199130086
155.0340651021953,0.026326471903415208
155.15151515151516,0.04063767194454785
155.2691432903715,0.021542664728178923
155.38694992412746,0.0020107986540008815
155.50493545937738,0.020965559798104955
155.62310030395136,0.052287250226152916
155.74144486692012,0.0443279470490369
155.8599695585997,0.010067196372123824
155.97867479055597,0.00922861315527197
156.09756097560975,0.046435537564742065
156.21662852784135,0.06144300169775996
156.33587786259542,0.03119135332581491
156.45530939648586,0.008123523796748917
156.5749235474006,0.030440215845004937
156.69472073450652,0.060543616019720525
156.8147013782542,0.0524788543987429
156.93486590038313,0.025927895087104965
157.05521472392638,0.025168585035524518
157.17574827321565,0.04578349290152429
157.29646697388634,0.05263893551389919
157.4173712528824,0.0419167253509663
157.53846153846155,0.037361924937895294
157.65973826020013,0.043674631716034466
157.78120184899845,0.04587922804455899
157.9028527370856,0.04289676185755568
158.02469135802468,0.04594268388520169
158.14671814671814,0.05212116564266912
158.26893353941267,0.049637927396902294
158.39133797370457,0.04227934356072095
158.5139318885449,0.04317964132342498
158.63671572424477,0.050437562736192744
158.7596899224806,0.051215029470435984
158.88285492629947,0.04474306475030095
159.0062111801242,0.04158298677888634
159.12975912975912,0.04422139071234019
159.25349922239502,0.045438635803546804
159.37743190661476,0.04289445040440067
159.50155763239874,0.04114633213990756
159.62587685113016,0.04129775087126442
159.7503900156006,0.04000806998908618
159.87509758001562,0.03724571909561106
160.0,0.03608149659771933
160.12509773260362,0.03624111368177666
160.2503912363067,0.03492400422739196
160.37588097102582,0.032353987052794464
160.5015673981191,0.030928938918123573
160.62745098039213,0.030680186713337262
160.7535321821036,0.029889283701343364
160.87981146897093,0.028472257445468645
161.0062893081761,0.027529192341241876
161.13296616837135,0.026993927124419153
161.25984251968504,0.026148910523885467
161.38691883372735,0.025302948798010115
161.51419558359618,0.02508347368063816
161.64167324388316,0.025134604288695173
161.7693522906793,0.024965528195467424
161.89723320158103,0.024923346348248096
162.0253164556962,0.025337780435706097
162.15360253365006,0.02593180073789857
162.28209191759112,0.026541085539609384
162.41078509119745,0.02736552218207056
162.53968253968253,0.02847929884629046
162.66878474980143,0.029751301020210914
162.79809220985692,0.03112226170802684
162.92760540970565,0.03267510808546091
163.05732484076432,0.03443498294755038
163.18725099601593,0.03623310144343769
163.31738437001593,0.037958692741469596
163.44772545889865,0.03971585532931744
163.57827476038338,0.04149276101309391
163.709032773781,0.04308654891215639
163.84,0.044465970676443124
163.97117694155327,0.045741894682640546
164.1025641025641,0.0468708897540585
164.23416198877305,0.04776163387535357
164.3659711075441,0.04845225887066893
164.49799196787149,0.048979073170760924
164.63022508038586,0.04932966075884431
164.76267095736122,0.04955700692101414
164.89533011272144,0.049717551882776156
165.02820306204674,0.04981317199923909
165.16129032258064,0.04988481380297036
165.29459241323647,0.049950152512725096
165.4281098546042,0.04994573713818957
165.56184316895713,0.049875308726606456
165.6957928802589,0.049758967388732145
165.82995951417004,0.049514554674067374
165.9643435980551,0.04911777354158647
166.09894566098947,0.04858552942552142
166.23376623376623,0.04782485086503808
166.36880584890332,0.04679572851353991
166.5040650406504,0.04554862501452966
166.63954434499593,0.044069567329165046
166.77524429967426,0.04236638813568062
166.9111654441728,0.04048768560226486
167.047308319739,0.03844275092328507
167.18367346938777,0.03628718839978339
167.3202614379085,0.034078987123366405
167.45707277187245,0.03182110710734174
167.59410801963992,0.02958446661013183
167.7313677313677,0.0274536501265512
167.86885245901638,0.02543353914157794
168.00656275635768,0.02354489343014382
168.14449917898193,0.021825330585175627
168.28266228430567,0.020263358730224727
168.42105263157896,0.01883917532599811
168.559670781893,0.017554719523547247
168.6985172981878,0.016410883489181988
168.83759274525966,0.015393363433793732
168.97689768976898,0.014475920010823233
169.11643270024774,0.013626854876454856
169.25619834710741,0.012817173319642336
169.39619520264682,0.012034433213827746
169.53642384105962,0.01127318373024796
169.67688483844242,0.010518569661465162
169.81757877280262,0.009765971445442783
169.95850622406635,0.009023065125387628
170.09966777408638,0.008279400326149098
170.24106400665005,0.00752790872749464
170.3826955074875,0.006795942655839124
170.52456286427974,0.0060964552280129885
170.66666666666666,0.005407736206480805
170.8090075062552,0.004731152542670867
170.9515859766277,0.0040916730973380964
171.09440267335003,0.0035009744915117254
171.23745819397996,0.0029642816432745435
171.3807531380753,0.0024812760582030454
171.52428810720266,0.002049003274721799
171.66806370494552,0.0016725383278436206
171.81208053691276,0.0013468141749712111
171.95633921074725,0.0010613875710420535
172.10084033613444,0.000819857638878458
172.24558452481077,0.0006235451947018214
172.3905723905724,0.0004660064657298928
172.5358045492839,0.0003422014222141914
172.681281618887,0.00024493685579856744
172.82700421940928,0.00016946046627480834
172.97297297297297,0.00011452674706123931
173.11918850380385,7.494897953066265e-05
173.26565143824024,4.626303947414324e-05
173.41236240474177,2.701910113053922e-05
173.55932203389833,1.4591502560086106e-05
173.70653095843934,6.905608160535163e-06
173.85398981324278,2.7778455432987973e-06
174.0016992353441,7.264789266929476e-07
174.14965986394557,4.0084777234436243e-08
174.2978723404255,1.7509498450018613e-07
174.44633730834755,6.227588077523126e-07
174.59505541346974,1.3477410972434484e-06
174.74402730375425,1.9092739761650856e-06
174.8932536293766,2.032161755349517e-06
175.04273504273505,2.2726487167186314e-06
175.1924721984602,2.5947215890085345e-06
175.34246575342465,2.4460412247395724e-06
175.49271636675235,2.1913909294084417e-06
175.6432246998285,2.2772020203639062e-06
175.79399141630904,2.2387332796415067e-06
175.94501718213058,1.9185450249917813e-06
176.0963026655202,1.746610048000524e-06
176.24784853700515,1.5729900685990494e-06
176.3996554694229,1.2012432322107555e-06
176.55172413793102,9.874391908849118e-07
176.70405522001724,9.505448120218687e-07
176.85664939550952,8.015376273787652e-07
177.00950734658602,6.295486222741898e-07
177.16262975778545,5.953956341019204e-07
177.3160173160173,5.916779438811745e-07
177.46967071057193,5.320522117524557e-07
177.62359063313096,4.923259979762044e-07
177.77777777777777,4.71583500143822e-07
177.93223284100782,3.7486473176891694e-07
178.08695652173913,2.912984399419674e-07
178.24194952132288,2.68831284737577e-07
178.397212543554,1.9032721106233194e-07
178.55274629468178,9.86027374811301e-08
178.70855148342056,8.63505243834664e-08
178.86462882096066,1.082424346121415e-07
179.02097902097898,9.561514673745485e-08
179.17760279965006,8.363592260743551e-08
179.33450087565674,8.263515319353263e-08
179.4916739702016,6.35318788739717e-08
179.64912280701753,5.018267495310386e-08
179.80684811237927,5.740653253308817e-08
179.96485061511424,6.475109493435259e-08
180.12313104661388,6.630479101217703e-08
180.28169014084506,6.128701439543657e-08
180.44052863436124,4.23509094070213e-08
180.59964726631395,2.980198882541101e-08
180.75904677846424,3.235891425710725e-08
180.91872791519435,2.233059826510965e-08
181.07869142351902,1.0237206208910248e-08
181.23893805309734,9.146114789137036e-09
181.39946855624444,1.059408755760556e-08
181.56028368794324,6.44440924288807e-09
181.72138420585628,2.758279774820695e-10
181.88277087033748,1.0184548890140735e-08
182.04444444444445,8.133705020916927e-09
182.20640569395016,4.2288307823682515e-09
182.3686553873553,5.04475407183291e-09
182.53119429590015,1.2732053687305628e-08
182.69402319357712,1.0770840571865979e-08
182.85714285714286,1.0364273644397757e-09
183.0205540661305,5.87187597394492e-10
183.18425760286226,1.5856684248146626e-09
183.34825425246197,1.5083406909751953e-10
183.51254480286738,7.674421171215757e-09
183.67713004484304,8.206267377864698e-09
183.84201077199282,1.412907096861299e-09
184.00718778077265,7.685432657600303e-09
184.1726618705036,3.0047036784781064e-09
184.33843384338437,1.4351088696784025e-09
184.5045045045045,7.014442768598327e-09
184.67087466185754,4.504491281798788e-09
184.83754512635377,6.070166076296963e-11
185.0045167118338,4.79809877279124e-11
185.17179023508135,2.2199028165092146e-09
185.33936651583707,6.875199902304216e-09
185.5072463768116,6.698834590500039e-09
185.675430643699,2.1486294740534474e-09
185.84392014519057,1.2198548916983194e-09
186.01271571298818,3.2223153403818688e-09
186.1818181818182,2.008384271655252e-09
186.3512283894449,2.7581330995514886e-09
186.52094717668484,3.591994893045282e-09
186.69097538742025,2.1081850878928655e-09
186.86131386861314,1.8680304766413823e-09
187.03196347031962,7.194899463885392e-11
187.20292504570384,5.0201781946898654e-09
187.37419945105214,2.8317079395760665e-09
187.54578754578753,3.7242643011191814e-09
187.71769019248396,4.669067303702056e-09
187.88990825688072,5.027294655818795e-10
188.06244260789717,3.796260461270487e-10
188.23529411764707,2.6164238678367887e-09
188.40846366145354,5.295119943458625e-09
188.5819521178637,3.021114402853623e-09
188.75576036866357,1.2458812931866078e-09
188.92988929889296,1.3943233271807875e-09
189.10433979686056,3.1897659892442943e-10
189.27911275415894,2.1135758336532414e-09
189.45420906567992,5.58094829914212e-09
189.62962962962962,3.206368569435163e-09
189.80537534754404,6.537467044587609e-09
189.98144712430428,9.591757105067755e-09
190.15784586815226,1.2804337485919842e-09
190.3345724907063,1.3212362022793827e-09
190.51162790697674,1.3145829676914003e-09
190.68901303538178,2.696613060163545e-09
190.8667287977633,4.08496748302436e-09
191.044776119403,4.018156623815526e-09
191.22315592903828,4.070543319166503e-09
191.4018691588785,3.6661920507350926e-09
191.5809167446211,1.152657805264978e-09
191.76029962546815,5.5186041197299434e-09
191.94001874414244,1.4252454024302854e-09
192.12007504690433,1.447645142837482e-09
192.3004694835681,2.750733629869458e-09
192.48120300751881,5.820960528384457e-10
192.66227657572907,8.453579917607069e-10
192.8436911487759,2.3194334908672643e-09
193.02544769085767,4.720873036615493e-09
193.2075471698113,5.1970957293464615e-09
193.38999055712932,4.572374601943353e-09
193.57277882797732,6.175545159287283e-09
193.75591296121098,5.903244879800502e-09
193.93939393939394,9.784471616132628e-10
194.12322274881518,7.292512802141472e-10
194.30740037950665,1.0070256695132205e-09
194.49192782526114,2.5262105935754485e-09
194.67680608365018,2.228721360946697e-09
194.86203615604185,1.6330465756188746e-09
195.04761904761907,4.667327601010211e-10
195.23355576739752,2.7728162146654986e-09
195.4198473282443,5.141475002951168e-09
195.6064947468959,1.9654704236824853e-09
195.79349904397705,1.3336168893551753e-09
195.9808612440191,3.02983892967002e-09
196.1685823754789,2.737586395402446e-09
196.35666347075744,8.049033635556704e-10
196.5451055662188,9.997401096741305e-10
196.73390970220942,2.7499440186315288e-09
196.92307692307693,1.4182531492448896e-10
197.1126082771896,5.258033620765691e-09
197.30250481695566,4.847519203200207e-09
197.4927675988428,2.828458299944385e-09
197.68339768339766,3.617126200935799e-10
197.8743961352657,1.9251938331651296e-09
198.06576402321085,2.6576414582838834e-09
198.25750242013552,2.7253692699415174e-09
198.44961240310076,1.7991912026509942e-09
198.64209505334625,4.726477956465419e-09
198.83495145631065,3.3328111090990187e-10
199.02818270165207,1.0018775693310063e-09
199.22178988326846,5.183813940976337e-10
199.4157740993184,2.91859618268296e-09
199.61013645224173,2.402619683441115e-09
199.8048780487805,1.2803438326851687e-08
200.0,8.994761863247077e-09
200.19550342130987,2.7251283723997093e-09
200.3913894324853,8.655460343410842e-11
200.58765915768853,5.183005532938118e-10
200.78431372549022,1.6247191152991984e-11
200.9813542688911,2.0210715348424907e-10
201.17878192534383,5.728020083537188e-10
201.37659783677483,8.627403795971328e-10
201.5748031496063,3.3218334285568623e-09
201.77339901477833,8.537434267837072e-09
201.9723865877712,4.031395190612032e-09
202.1717670286278,5.566768887130033e-10
202.3715415019763,1.5101095315911965e-09
202.57171117705244,1.2477430801557698e-09
202.77227722772278,2.7189109960223246e-09
202.97324083250743,5.634679592653653e-09
203.17460317460316,1.7072793948549593e-09
203.37636544190661,1.3202392453259522e-09
