"Wavelength, nm",Intensity
136.44237175216523,1.924413542147201e-26
136.53333333333333,1.594127161459328e-26
136.62441627751835,2.646346723559572e-26
136.71562082777035,2.561674411978043e-26
136.80694722778892,2.882710269518735e-26
136.89839572192514,3.4145049676142126e-26
136.98996655518394,4.0189612468664e-26
137.08165997322624,5.69413515337475e-26
137.17347622237108,3.158094587740165e-25
137.26541554959786,2.970957318378799e-24
137.35747820254863,4.0915836120454954e-23
137.4496644295302,3.836065655832563e-22
137.54197447951645,2.2081385662895834e-21
137.63440860215053,9.86304929252375e-21
137.72696704774717,4.8394620876456354e-20
137.81965006729476,2.6969023092315747e-19
137.9124579124579,1.357455490795839e-18
138.0053908355795,5.637038005426639e-18
138.09844908968307,1.9534426868728625e-17
138.19163292847506,5.807447320258004e-17
138.28494260634707,1.5189009495981012e-16
138.37837837837836,3.5797118147431907e-16
138.47194050033806,7.770545153364877e-16
138.5656292286874,1.584189625846537e-15
138.65944482058225,3.091059806575251e-15
138.75338753387533,5.858308241222928e-15
138.84745762711862,1.0818634956020714e-14
138.94165535956583,1.933912396180047e-14
139.03598099117448,3.3270697525552325e-14
139.1304347826087,5.510451093945071e-14
139.22501699524133,8.8216682616902e-14
139.31972789115645,1.3719559839793883e-13
139.4145677331518,2.0872507610661354e-13
139.50953678474113,3.1375100129733366e-13
139.60463531015677,4.707180659995815e-13
139.69986357435198,7.09306565064763e-13
139.79522184300342,1.0757825318532273e-12
139.89071038251367,1.6415322226892403e-12
139.98632946001365,2.5157254140478464e-12
140.08207934336525,3.8667957777938345e-12
140.17796030116358,5.961077492097745e-12
140.27397260273972,9.219981209404921e-12
140.37011651816314,1.4294061165754026e-11
140.46639231824417,2.2167258497292192e-11
140.56280027453673,3.4304394233914525e-11
140.65934065934067,5.282875662641633e-11
140.75601374570448,8.07077796143361e-11
140.85281980742778,1.2194044083019568e-10
140.949759119064,1.8174067813437896e-10
141.04683195592284,2.6670085707921194e-10
141.14403859407307,3.8489001568365176e-10
141.24137931034483,5.457398581307753e-10
141.33885438233264,7.596255244816758e-10
141.4364640883978,1.0371122056271187e-09
141.53420870767104,1.3877787473175144e-09
141.6320885200553,1.819294731731219e-09
141.73010380622836,2.3375311891209188e-09
141.8282548476454,2.9473085958916824e-09
141.92654192654192,3.6542838137205725e-09
142.0249653259362,4.469589528735177e-09
142.1235253296322,5.418640404698282e-09
142.22222222222223,6.555881279740765e-09
142.32105628908963,7.987802475845295e-09
142.42002781641168,9.90560663855843e-09
142.51913709116212,1.2623536244760524e-08
142.6183844011142,1.6619313058304175e-08
142.7177700348432,2.257442491962828e-08
142.81729428172943,3.1407798657870394e-08
142.91695743196092,4.430232087224951e-08
143.0167597765363,6.271063441673723e-08
143.11670160726763,8.832162227853259e-08
143.21678321678323,1.2298912982598315e-07
143.31700489853043,1.6860166852040156e-07
143.4173669467787,2.2688007177980868e-07
143.5178696566223,2.991195946041314e-07
143.61851332398317,3.8589620791715953e-07
143.71929824561403,4.867793824069103e-07
143.8202247191011,6.00063591660058e-07
143.92129304286718,7.225829490988585e-07
144.0225035161744,8.497260374423015e-07
144.12385643912737,9.757011950002167e-07
144.22535211267606,1.0941243543675904e-06
144.32699083861874,1.1989072282442862e-06
144.42877291960508,1.2855281236436079e-06
144.530698659139,1.3528363610230644e-06
144.6327683615819,1.4050028948521264e-06
144.73498233215545,1.4535705627024384e-06
144.83734087694484,1.519826137402705e-06
144.9398443029016,1.6364776816336566e-06
145.04249291784703,1.8483454474997096e-06
145.14528703047483,2.2131691374955172e-06
145.24822695035462,2.801130049880166e-06
145.35131298793468,3.692122122164071e-06
145.45454545454544,4.974277956253794e-06
145.55792466240226,6.742180112506382e-06
145.66145092460883,9.091478990845195e-06
145.76512455516016,1.211902983792652e-05
145.86894586894587,1.5926891559260853e-05
145.9729151817534,2.0617121135470865e-05
146.07703281027102,2.629729396755449e-05
146.18129907209135,3.310103881575647e-05
146.28571428571428,4.118247800012034e-05
146.39027877055037,5.071845607510314e-05
146.49499284692416,6.195062349993929e-05
146.59985683607732,7.516441970793301e-05
146.7048710601719,9.065196080194282e-05
146.8100358422939,0.00010878933452756847
146.91535150645623,0.0001300020809298035
147.0208183776023,0.00015461697642356014
147.1264367816092,0.000183001894844442
147.23220704529115,0.0002155956348117621
147.33812949640287,0.0002524688905558153
147.4442044636429,0.00029344976140992327
147.55043227665706,0.00033885269935848166
147.6568132660418,0.00038923386150017416
147.76334776334778,0.0004443132929503506
147.87003610108303,0.0005027925640659768
147.97687861271675,0.0005640556959381089
148.08387563268258,0.0006303025267747681
148.19102749638205,0.0007048256599781412
148.29833454018825,0.0007878189395275092
148.40579710144928,0.0008781521519005766
148.51341551849166,0.0009781237389025897
148.6211901306241,0.0010919547296934845
148.72912127814087,0.0012252881372981496
148.8372093023256,0.001387312342644267
148.94545454545454,0.0015831243852498721
149.0538573508006,0.0018124091461976298
149.16241806263656,0.0020864255737807276
149.27113702623907,0.0024244639570297974
149.38001458789202,0.0028310795558886045
149.4890510948905,0.003308892296584095
149.59824689554418,0.003877815571121921
149.70760233918128,0.004549394042679032
149.81711777615214,0.005317499086118495
149.9267935578331,0.006190805512519019
150.03663003663004,0.007191241783868427
150.1466275659824,0.008328234086186128
150.25678650036684,0.00960034893654917
150.36710719530103,0.010994964452370273
150.47759000734754,0.012497787055171437
150.58823529411762,0.014119277176502252
150.69904341427517,0.015850577958976805
150.8100147275405,0.01761970313556157
150.92114959469419,0.019390795425067935
151.03244837758112,0.021218610721819818
151.1439114391144,0.0230859533439116
151.25553914327915,0.024820041369458475
151.3673318551367,0.026305049732921644
151.47928994082838,0.027654810027180007
151.59141376757958,0.028986687386519983
151.7037037037037,0.030062776280401587
151.81616011860638,0.030485678519182022
151.92878338278933,0.030392728099762397
152.04157386785448,0.030401157823327075
152.15453194650817,0.030454446396170086
152.26765799256503,0.02956103799979805
152.38095238095235,0.02748784789033628
152.4944154877141,0.025644326865911247
152.6080476900149,0.024915437051933262
152.72184936614468,0.02376784940356612
152.8358208955224,0.020655792930076123
152.9499626587005,0.017331452376824708
153.0642750373692,0.01659191376301151
153.1787584143605,0.017154493314937715
153.29341317365268,0.015144204154052836
153.40823970037454,0.011273528971218435
153.5232383808096,0.010850399491549567
153.6384096024006,0.014363375790602113
153.75375375375376,0.014964183697222303
153.86927122464311,0.010107747739851238
153.98496240601503,0.007936603446378202
154.10082768999246,0.013824963394385152
154.2168674698795,0.01854445909911742
154.33308214016577,0.012596601510445537
154.4494720965309,0.005237835530353111
154.56603773584905,0.011113111539288479
154.68277945619334,0.022612582457930294
154.79969765684052,0.019466970961508158
154.91679273827532,0.005826838914317507
155.0340651021953,0.008317699328662434
155.15151515151516,0.029576055542270253
155.2691432903715,0.03724223474014803
155.38694992412746,0.017677167878273888
155.50493545937738,0.0058278345232144636
155.62310030395136,0.029770161532506
155.74144486692012,0.05758671979935118
155.8599695585997,0.04523100844003517
155.97867479055597,0.012763556497506068
156.09756097560975,0.015652524210107363
156.21662852784135,0.05250014371707484
156.33587786259542,0.06518225051630613
156.45530939648586,0.0346876416256769
156.5749235474006,0.012438828090553855
156.69472073450652,0.03450365441039412
156.8147013782542,0.06390095977159892
156.93486590038313,0.055634599380994965
157.05521472392638,0.029178089786214386
157.17574827321565,0.02883369613448787
157.29646697388634,0.05014342497878326
157.4173712528824,0.056525879206846624
157.53846153846155,0.04341226224183242
157.65973826020013,0.03718464755041277
157.78120184899845,0.04480103479507953
157.9028527370856,0.04823561097739179
158.02469135802468,0.04264436146754581
158.14671814671814,0.04196767453966759
158.26893353941267,0.04841642087767066
158.39133797370457,0.048922104301498924
158.5139318885449,0.04202545771937638
158.63671572424477,0.040456423506472855
158.7596899224806,0.046261490100326166
158.88285492629947,0.04760153272663255
159.0062111801242,0.0412087937230503
159.12975912975912,0.03685894750917375
159.25349922239502,0.038546524077535706
159.37743190661476,0.03935383126316728
159.50155763239874,0.03598736526567904
159.62587685113016,0.033429128458855414
159.7503900156006,0.03399567034478746
159.87509758001562,0.03379328654183935
160.0,0.03129488580539543
160.12509773260362,0.02974098555101314
160.2503912363067,0.030017681993981107
160.37588097102582,0.029241519416678508
160.5015673981191,0.026894158645907565
160.62745098039213,0.025512905396641566
160.7535321821036,0.025513100011102373
160.87981146897093,0.02499942631020452
161.0062893081761,0.023825991967719878
161.13296616837135,0.02337650762971655
161.25984251968504,0.0235833479542186
161.38691883372735,0.023440607679878787
161.51419558359618,0.02316136466996489
161.64167324388316,0.023547890547707517
161.7693522906793,0.024372900322706906
161.89723320158103,0.025027109526332515
162.0253164556962,0.025790445591582164
162.15360253365006,0.027140106685692052
162.28209191759112,0.028728757012919243
162.41078509119745,0.03012804102012214
162.53968253968253,0.031577554104296364
162.66878474980143,0.03323919383268967
162.79809220985692,0.034770447253985294
162.92760540970565,0.03601945663310218
163.05732484076432,0.03721390727163401
163.18725099601593,0.0383914549105376
163.31738437001593,0.03934118674713133
163.44772545889865,0.040056966120295474
163.57827476038338,0.04073539111523636
163.709032773781,0.0413984169101277
163.84,0.04195701427894983
163.97117694155327,0.042507995292487825
164.1025641025641,0.04318326601963908
164.23416198877305,0.043949061578008465
164.3659711075441,0.04476609586201112
164.49799196787149,0.04565094814753999
164.63022508038586,0.04658504625253403
164.76267095736122,0.047536681811872414
164.89533011272144,0.04843690817693472
165.02820306204674,0.04919439861576195
165.16129032258064,0.049791667340896045
165.29459241323647,0.0501708608087375
165.4281098546042,0.05021795544275961
165.56184316895713,0.04994069529047022
165.6957928802589,0.04931941033711608
165.82995951417004,0.048231206260408985
165.9643435980551,0.04672415466927855
166.09894566098947,0.044912526292829
166.23376623376623,0.04276973480998729
166.36880584890332,0.040335737416309365
166.5040650406504,0.0377206346722924
166.63954434499593,0.03495892188597934
166.77524429967426,0.03213297121199228
166.9111654441728,0.029341860820996563
167.047308319739,0.026604086156177376
167.18367346938777,0.02398017344013984
167.3202614379085,0.021532921584691448
167.45707277187245,0.019244964739795038
167.59410801963992,0.01713949891464063
167.7313677313677,0.01526829342928968
167.86885245901638,0.01362332246405165
168.00656275635768,0.012179517694538277
168.14449917898193,0.010912444260481588
168.28266228430567,0.009805448334689238
168.42105263157896,0.008850990221723693
168.559670781893,0.008006053747590558
168.6985172981878,0.007245668577441477
168.83759274525966,0.006591108040253193
168.97689768976898,0.006018328712052238
169.11643270024774,0.005481641406161809
169.25619834710741,0.004980439688989509
169.39619520264682,0.004514325381023916
169.53642384105962,0.004073760392494432
169.67688483844242,0.0036571934457992313
169.81757877280262,0.003253821270118444
169.95850622406635,0.002867591447518829
170.09966777408638,0.002515414010933912
170.24106400665005,0.0021899087161737275
170.3826955074875,0.0018853164528406501
170.52456286427974,0.0016102570558098918
170.66666666666666,0.0013596287494440666
170.8090075062552,0.0011305986834257162
170.9515859766277,0.0009323545215374429
171.09440267335003,0.0007625393274733709
171.23745819397996,0.0006139155862881854
171.3807531380753,0.0004864323386051124
171.52428810720266,0.000379360224075434
171.66806370494552,0.0002915996639663837
171.81208053691276,0.00022216162948311173
171.95633921074725,0.00016750038888858212
172.10084033613444,0.00012482240606968606
172.24558452481077,9.160910448633768e-05
172.3905723905724,6.531162232325776e-05
172.5358045492839,4.548704610398985e-05
172.681281618887,3.109923221703824e-05
172.82700421940928,2.0377569800334244e-05
172.97297297297297,1.3002130794925971e-05
173.11918850380385,8.29839688992283e-06
173.26565143824024,5.072748274804849e-06
173.41236240474177,2.9685625101713497e-06
173.55932203389833,1.7203425992088022e-06
173.70653095843934,9.343351990998722e-07
173.85398981324278,4.78706761369751e-07
174.0016992353441,2.3425388638128538e-07
174.14965986394557,9.459703837596158e-08
174.2978723404255,5.7332060962413287e-08
174.44633730834755,5.6617963274595154e-08
174.59505541346974,3.297819070416079e-08
174.74402730375425,4.036332866706941e-08
174.8932536293766,7.384123228076437e-08
175.04273504273505,7.763244483289202e-08
175.1924721984602,8.716799355424218e-08
175.34246575342465,1.0466288948451927e-07
175.49271636675235,8.853945024131512e-08
175.6432246998285,9.167917034861845e-08
175.79399141630904,9.606910532760406e-08
175.94501718213058,7.398377604668385e-08
176.0963026655202,8.581039771992599e-08
176.24784853700515,9.805240434656585e-08
176.3996554694229,7.654648862102914e-08
176.55172413793102,6.489230968122673e-08
176.70405522001724,5.169812212215128e-08
176.85664939550952,3.6253200996202356e-08
177.00950734658602,3.490440399144529e-08
177.16262975778545,2.7721916280323084e-08
177.3160173160173,3.439337321658889e-08
177.46967071057193,5.362290519165173e-08
177.62359063313096,3.6449799480895145e-08
177.77777777777777,2.4758793021197867e-08
177.93223284100782,3.8178102879263576e-08
178.08695652173913,3.613202278371374e-08
178.24194952132288,1.9106339314140742e-08
178.397212543554,1.8197634620720852e-08
178.55274629468178,1.4254295306312223e-08
178.70855148342056,3.951307612078207e-09
178.86462882096066,8.465800130708382e-09
179.02097902097898,1.544928063360086e-08
179.17760279965006,8.910897782743259e-09
179.33450087565674,9.847305916196408e-09
179.4916739702016,2.068418123073563e-08
179.64912280701753,2.0644337440031612e-08
179.80684811237927,5.8657976324435616e-09
179.96485061511424,5.385535810013153e-09
180.12313104661388,2.3023245339499132e-08
180.28169014084506,1.3557027419884708e-08
180.44052863436124,8.534051556127385e-09
180.59964726631395,5.00638186543438e-09
180.75904677846424,1.4748112728208272e-09
180.91872791519435,1.001924021855007e-08
181.07869142351902,4.111254914111169e-09
181.23893805309734,1.387126099083266e-09
181.39946855624444,8.483347369000732e-09
181.56028368794324,7.91091366756822e-09
181.72138420585628,1.078036122118948e-09
181.88277087033748,1.3744309966079305e-08
182.04444444444445,5.3118276062330924e-09
182.20640569395016,3.2314444164584407e-09
182.3686553873553,8.06713618899694e-09
182.53119429590015,6.433110049537812e-10
182.69402319357712,2.660657953166921e-09
182.85714285714286,1.7424996521894621e-09
183.0205540661305,7.662772652570762e-10
183.18425760286226,4.482444537881035e-09
183.34825425246197,2.753593377345692e-09
183.51254480286738,7.260215752040443e-10
183.67713004484304,1.4156481719600825e-09
183.84201077199282,1.912171720611029e-09
184.00718778077265,2.5851136114143566e-09
184.1726618705036,2.058819357069624e-09
184.33843384338437,2.0657224812275558e-11
184.5045045045045,8.422486142991698e-10
184.67087466185754,1.833265635467364e-10
184.83754512635377,4.262388265724015e-09
185.0045167118338,1.4906018894950126e-09
185.17179023508135,2.50370841961611e-09
185.33936651583707,4.782632348147168e-09
185.5072463768116,2.0041477152154738e-10
185.675430643699,7.103108854997662e-09
185.84392014519057,5.351590785811187e-09
186.01271571298818,3.4267766370022586e-10
186.1818181818182,2.0613727382268682e-10
186.3512283894449,2.9185803035628305e-10
186.52094717668484,4.2193368824595025e-11
186.69097538742025,4.04506452672454e-10
186.86131386861314,9.665866525353206e-11
187.03196347031962,5.905547926017346e-10
187.20292504570384,1.5805060748182088e-09
187.37419945105214,2.4850503496079457e-09
187.54578754578753,1.2232888210511517e-09
187.71769019248396,9.624202840790499e-09
187.88990825688072,1.341234165196297e-08
188.06244260789717,2.9830808759941705e-09
188.23529411764707,1.5242197566526258e-10
188.40846366145354,2.004760437263702e-09
188.5819521178637,8.05860517228569e-09
188.75576036866357,2.8340875050543375e-09
188.92988929889296,3.931300003706555e-10
189.10433979686056,6.30165312455464e-10
189.27911275415894,1.964825876715304e-09
189.45420906567992,8.25586865932717e-09
189.62962962962962,5.803863752407387e-09
189.80537534754404,8.034538818430847e-09
189.98144712430428,4.732000614947111e-09
190.15784586815226,1.3967631912503834e-09
190.3345724907063,2.3383272423877394e-09
190.51162790697674,1.8675051372805946e-10
190.68901303538178,2.760813948576188e-09
190.8667287977633,7.429590048318528e-10
191.044776119403,5.801789825921122e-10
191.22315592903828,2.77233791526269e-09
191.4018691588785,3.2874389953811613e-09
191.5809167446211,1.1209909125763545e-09
191.76029962546815,3.9412231956822756e-09
191.94001874414244,1.1246167317574973e-10
192.12007504690433,9.705364066203296e-10
192.3004694835681,5.297831214658783e-09
192.48120300751881,8.716298196593815e-09
192.66227657572907,1.2014037317758123e-09
192.8436911487759,6.104532611824374e-09
193.02544769085767,5.528817822628501e-09
193.2075471698113,3.7989798028415656e-09
193.38999055712932,1.602115061638015e-10
193.57277882797732,8.416463321192277e-10
193.75591296121098,1.0653127443886166e-09
193.93939393939394,7.292531108292114e-10
194.12322274881518,5.101837059472072e-09
194.30740037950665,1.917670187847547e-09
194.49192782526114,1.2232915038494027e-09
194.67680608365018,1.3593081641922998e-09
194.86203615604185,1.7016160181267773e-10
195.04761904761907,3.4840454248834485e-10
195.23355576739752,8.114625511440129e-10
195.4198473282443,4.331995662788409e-09
195.6064947468959,2.7948167875391125e-09
195.79349904397705,1.741548895188853e-09
195.9808612440191,1.798830963641431e-09
196.1685823754789,2.861007409438316e-09
196.35666347075744,2.207258260249315e-09
196.5451055662188,4.536660536207912e-09
196.73390970220942,2.836638496464611e-09
196.92307692307693,4.847119643718746e-09
197.1126082771896,1.3146284263704502e-09
197.30250481695566,3.4691063152269395e-09
197.4927675988428,1.8072995300259724e-10
197.68339768339766,3.3447824506850425e-09
197.8743961352657,1.4793442489415179e-09
198.06576402321085,1.470827208954179e-09
198.25750242013552,2.518333267804651e-09
198.44961240310076,1.2623201002203999e-08
198.64209505334625,1.0076705216331791e-08
198.83495145631065,7.1399303746183185e-09
199.02818270165207,5.151644324280162e-09
199.22178988326846,2.0045298572980383e-10
199.4157740993184,2.2144348112130842e-09
199.61013645224173,1.3679913361905625e-09
199.8048780487805,3.7591887589281303e-10
200.0,2.1095691562690056e-10
200.19550342130987,5.295489721199135e-09
200.3913894324853,3.366899226274456e-09
200.58765915768853,1.6261390916002032e-09
200.78431372549022,1.173954033813268e-08
200.9813542688911,1.3925093096638967e-08
201.17878192534383,5.894632961459457e-09
201.37659783677483,1.1181412422166079e-09
201.5748031496063,9.384267004859428e-10
201.77339901477833,4.236192661151338e-09
201.9723865877712,2.969228022076016e-09
202.1717670286278,5.850248929339997e-10
202.3715415019763,7.665467871434739e-10
202.57171117705244,1.9795233184698118e-10
202.77227722772278,4.3088944935509084e-10
202.97324083250743,8.723618385438668e-09
203.17460317460316,1.4697559257077436e-08
