"Wavelength, nm",Intensity
136.44237175216523,1.4591154172924987e-18
136.53333333333333,2.4172144340785765e-18
136.62441627751835,2.6080450408109735e-18
136.71562082777035,3.178512289910453e-18
136.80694722778892,5.0055185492407766e-18
136.89839572192514,4.961325576813372e-18
136.98996655518394,7.150353287005555e-18
137.08165997322624,3.990852875961748e-18
137.17347622237108,1.4565929835154526e-16
137.26541554959786,1.9535829312951644e-15
137.35747820254863,1.6112238279639987e-14
137.4496644295302,1.319565018554882e-13
137.54197447951645,9.669540904620013e-13
137.63440860215053,6.04742326996679e-12
137.72696704774717,3.093652012604124e-11
137.81965006729476,1.2613508137028044e-10
137.9124579124579,4.231553185039839e-10
138.0053908355795,1.2612697758949245e-09
138.09844908968307,3.464072189040023e-09
138.19163292847506,8.521505862899904e-09
138.28494260634707,1.886014181587737e-08
138.37837837837836,3.894243854271861e-08
138.47194050033806,7.369469460916213e-08
138.5656292286874,1.231793510017183e-07
138.65944482058225,1.8325109724309423e-07
138.75338753387533,2.460367621495419e-07
138.84745762711862,2.950098152683779e-07
138.94165535956583,3.227810067879974e-07
139.03598099117448,3.445544060630612e-07
139.1304347826087,3.708182839693384e-07
139.22501699524133,3.900143063474615e-07
139.31972789115645,3.869661526233393e-07
139.4145677331518,3.606072853333405e-07
139.50953678474113,3.19497109495826e-07
139.60463531015677,3.10551770765871e-07
139.69986357435198,4.365576700098641e-07
139.79522184300342,7.899613457376347e-07
139.89071038251367,1.350732219917305e-06
139.98632946001365,1.9167758660838558e-06
140.08207934336525,2.4330272745375185e-06
140.17796030116358,3.365357496187069e-06
140.27397260273972,5.648067611249577e-06
140.37011651816314,1.0277617687986167e-05
140.46639231824417,1.7517466571959794e-05
140.56280027453673,2.797658605469365e-05
140.65934065934067,3.973775518563097e-05
140.75601374570448,4.404685156417545e-05
140.85281980742778,3.7022068166767436e-05
140.949759119064,2.5927845654230904e-05
141.04683195592284,2.0066684364961156e-05
141.14403859407307,2.8828790948620377e-05
141.24137931034483,5.8593496356921107e-05
141.33885438233264,0.00010462573154857486
141.4364640883978,0.0001466565082926547
141.53420870767104,0.00019178876346590744
141.6320885200553,0.0002817935130748066
141.73010380622836,0.00039603393328314744
141.8282548476454,0.0005331664991368164
141.92654192654192,0.0008026693751788226
142.0249653259362,0.0011541276866694464
142.1235253296322,0.0014684065467354649
142.22222222222223,0.0018574661320521202
142.32105628908963,0.0022557856865807638
142.42002781641168,0.002389825574072483
142.51913709116212,0.0023483340867075033
142.6183844011142,0.002299980151322636
142.7177700348432,0.002209765067399786
142.81729428172943,0.002128776779699274
142.91695743196092,0.002173520580108566
143.0167597765363,0.0023886841831868666
143.11670160726763,0.0028006998578623305
143.21678321678323,0.003435204268083193
143.31700489853043,0.004380608842670328
143.4173669467787,0.006004979079298705
143.5178696566223,0.008996540489784087
143.61851332398317,0.014089306448322998
143.71929824561403,0.02134872682961249
143.8202247191011,0.030082938054134284
143.92129304286718,0.039779318860152055
144.0225035161744,0.04890811093008453
144.12385643912737,0.05464421991766858
144.22535211267606,0.057020801292241075
144.32699083861874,0.057653754679667754
144.42877291960508,0.05503562528631662
144.530698659139,0.0490073040342131
144.6327683615819,0.0431205605328318
144.73498233215545,0.038094234175738276
144.83734087694484,0.032881708561791505
144.9398443029016,0.029203411464497148
145.04249291784703,0.02768787680149229
145.14528703047483,0.02554091662251015
145.24822695035462,0.02211817761714477
145.35131298793468,0.02054006499249135
145.45454545454544,0.022494713798529672
145.55792466240226,0.027663250947878602
145.66145092460883,0.035810947190082563
145.76512455516016,0.04605969102740043
145.86894586894587,0.05387432794599151
145.9729151817534,0.05804541980334995
146.07703281027102,0.06055566233316484
146.18129907209135,0.0540234610191942
146.28571428571428,0.038254241672927375
146.39027877055037,0.024445497179596157
146.49499284692416,0.013888128880434785
146.59985683607732,0.00627534022293374
146.7048710601719,0.0022368822459230948
146.8100358422939,0.001180421589642865
146.91535150645623,0.0029019615049320885
147.0208183776023,0.0030408331317987917
147.1264367816092,0.0027238948322180277
147.23220704529115,0.0037988438117226076
147.33812949640287,0.0018888877555051737
147.4442044636429,0.0003145807357383675
147.55043227665706,0.0017564327938841672
147.6568132660418,0.005670196064269256
147.76334776334778,0.004168153185246381
147.87003610108303,0.001970036042793074
147.97687861271675,0.01926100584284275
148.08387563268258,0.021422318986997972
148.19102749638205,0.004207605673029381
148.29833454018825,0.028206460908899365
148.40579710144928,0.046234538664478964
148.51341551849166,0.012051852557611237
148.6211901306241,0.02980102793019605
148.72912127814087,0.1139194500611293
148.8372093023256,0.10034529752580355
148.94545454545454,0.05659316386927009
149.0538573508006,0.22352875923990007
149.16241806263656,0.35327582835447985
149.27113702623907,0.1808674602926087
149.38001458789202,0.17890183798912127
149.4890510948905,0.46371192506027675
149.59824689554418,0.4006047600069314
149.70760233918128,0.09897052594739227
149.81711777615214,0.16954492465643947
149.9267935578331,0.3269114763849843
150.03663003663004,0.15495598520576112
150.1466275659824,0.012041767658582482
150.25678650036684,0.1078723083530439
150.36710719530103,0.11744648343057976
150.47759000734754,0.01576542918562899
150.58823529411762,0.013825730564869926
150.69904341427517,0.0334249399687476
150.8100147275405,0.002433759084790006
150.92114959469419,0.02313863622494224
151.03244837758112,0.058260040853899304
151.1439114391144,0.026262475398261056
151.25553914327915,0.029202580479232288
151.3673318551367,0.07838393562035138
151.47928994082838,0.06283205894172443
151.59141376757958,0.026821584734317984
151.7037037037037,0.040613248385297784
151.81616011860638,0.034580800602566394
151.92878338278933,0.003612774158957847
152.04157386785448,0.01065215416425959
152.15453194650817,0.04002148735686444
152.26765799256503,0.04608201486506948
152.38095238095235,0.04777057787872285
152.4944154877141,0.06236416026838961
152.6080476900149,0.0637535767706568
152.72184936614468,0.041878165856633606
152.8358208955224,0.03257419936673211
152.9499626587005,0.07783410064477794
153.0642750373692,0.07729632952935518
153.1787584143605,0.012135630747972397
153.29341317365268,0.010826909159303148
153.40823970037454,0.04708541573868303
153.5232383808096,0.03283194994325496
153.6384096024006,0.0012695133144768908
153.75375375375376,0.044316381434499945
153.86927122464311,0.112564228511267
153.98496240601503,0.05468501011698774
154.10082768999246,0.022567234481273145
154.2168674698795,0.16715666809401147
154.33308214016577,0.18897407278112735
154.4494720965309,0.019980993361053745
154.56603773584905,0.08000441017919246
154.68277945619334,0.3060988958922756
154.79969765684052,0.26316520884406885
154.91679273827532,0.06078093541129892
155.0340651021953,0.07340786697000985
155.15151515151516,0.24067817885271536
155.2691432903715,0.3000505560297162
155.38694992412746,0.14998818458670168
155.50493545937738,0.009813370335584479
155.62310030395136,0.13494443418449859
155.74144486692012,0.26968683817059624
155.8599695585997,0.13799754906408715
155.97867479055597,0.0016800259571190942
156.09756097560975,0.053370701028945915
156.21662852784135,0.07691123528554693
156.33587786259542,0.024003266641014764
156.45530939648586,0.0034159777349309075
156.5749235474006,0.011594452216134699
156.69472073450652,0.02900270970330663
156.8147013782542,0.029701739465913386
156.93486590038313,0.012512599132549299
157.05521472392638,0.055214287969468326
157.17574827321565,0.14195101652434458
157.29646697388634,0.11916605647242479
157.4173712528824,0.0122741559627842
157.53846153846155,0.06862174379018256
157.65973826020013,0.3093534148429697
157.78120184899845,0.40911215893160935
157.9028527370856,0.22092360004594847
158.02469135802468,0.01857288228322434
158.14671814671814,0.05871245825627595
158.26893353941267,0.2797607155109056
158.39133797370457,0.4298656024216332
158.5139318885449,0.32631687249636254
158.63671572424477,0.0797457472920965
158.7596899224806,0.012911934173459419
158.88285492629947,0.15949307098399557
159.0062111801242,0.21702265666778825
159.12975912975912,0.10567071485825102
159.25349922239502,0.011115927743058253
159.37743190661476,0.011148845410933141
159.50155763239874,0.026390716447251654
159.62587685113016,0.01323148533175311
159.7503900156006,0.011492124058019424
159.87509758001562,0.05760213023893724
160.0,0.09034531190325316
160.12509773260362,0.037283906206100635
160.2503912363067,0.002189131957288299
160.37588097102582,0.07984299807117085
160.5015673981191,0.14211980996935747
160.62745098039213,0.07202932185923822
160.7535321821036,0.0026265444272287795
160.87981146897093,0.06098099808226966
161.0062893081761,0.11714352442059837
161.13296616837135,0.06775818479484419
161.25984251968504,0.006965836149809594
161.38691883372735,0.008672931609209776
161.51419558359618,0.040446904764260175
161.64167324388316,0.05208403862517861
161.7693522906793,0.03089040103892638
161.89723320158103,0.0035630709905658184
162.0253164556962,0.006238002172717099
162.15360253365006,0.03308917609998992
162.28209191759112,0.05099464227461712
162.41078509119745,0.039584517937442276
162.53968253968253,0.010614035210601622
162.66878474980143,0.040661187132602875
162.79809220985692,0.12425104493825727
162.92760540970565,0.140211091461094
163.05732484076432,0.15904693009949797
163.18725099601593,0.30905221386854126
163.31738437001593,0.40757673986486254
163.44772545889865,0.28998508972152626
163.57827476038338,0.18051042651863955
163.709032773781,0.3491817647443141
163.84,0.6546715401914898
163.97117694155327,0.735359328866826
164.1025641025641,0.5144137772411376
164.23416198877305,0.2851232304648433
164.3659711075441,0.29347742918895986
164.49799196787149,0.4550312362147753
164.63022508038586,0.5474055619303693
164.76267095736122,0.4725627888550513
164.89533011272144,0.29464493948676806
165.02820306204674,0.16687239185596817
165.16129032258064,0.18586829509639372
165.29459241323647,0.2637349828320118
165.4281098546042,0.23261982148472146
165.56184316895713,0.10399673857280517
165.6957928802589,0.04744834349912337
165.82995951417004,0.1016175321674484
165.9643435980551,0.12894654935247432
166.09894566098947,0.09350984656456374
166.23376623376623,0.11403112878123604
166.36880584890332,0.1699952516741097
166.5040650406504,0.138695028022969
166.63954434499593,0.04059095932582505
166.77524429967426,0.0018415204447247604
166.9111654441728,0.06227317212427656
167.047308319739,0.14577725035323602
167.18367346938777,0.17216521643053767
167.3202614379085,0.12311324042473558
167.45707277187245,0.048122906671985176
167.59410801963992,0.0058918561286319384
167.7313677313677,0.008018768717347503
167.86885245901638,0.03907771220755732
168.00656275635768,0.060957677455215915
168.14449917898193,0.03736006492522439
168.28266228430567,0.006314886918944831
168.42105263157896,0.028365691726751706
168.559670781893,0.07160652435352916
168.6985172981878,0.057967012369157835
168.83759274525966,0.016329805575961077
168.97689768976898,0.02335724286290689
169.11643270024774,0.05261610486603594
169.25619834710741,0.04685944294048534
169.39619520264682,0.015026558533665907
169.53642384105962,0.003041419359728163
169.67688483844242,0.040714415609377615
169.81757877280262,0.08493608985957049
169.95850622406635,0.07604332699500393
170.09966777408638,0.034867189189548654
170.24106400665005,0.004603363661078303
170.3826955074875,0.003195891649531217
170.52456286427974,0.022039671392425582
170.66666666666666,0.03837103923787266
170.8090075062552,0.07984960754471844
170.9515859766277,0.17245097191532532
171.09440267335003,0.2126653949923892
171.23745819397996,0.10768721374426121
171.3807531380753,0.004119108220878783
171.52428810720266,0.0952581784837345
171.66806370494552,0.2548048376379227
171.81208053691276,0.2528571519050335
171.95633921074725,0.1386953867599666
172.10084033613444,0.056303323813904155
172.24558452481077,0.02616409241637748
172.3905723905724,0.03408001421420284
172.5358045492839,0.08013717345549658
172.681281618887,0.12729784788732432
172.82700421940928,0.10810162208923624
172.97297297297297,0.028926796446069797
173.11918850380385,0.006651136566033818
173.26565143824024,0.04808539985877545
173.41236240474177,0.04218819882929819
173.55932203389833,0.015597090219131896
173.70653095843934,0.023531207062753662
173.85398981324278,0.03568626348596241
174.0016992353441,0.015708718854021152
174.14965986394557,0.012373240993906541
174.2978723404255,0.10251055090137391
174.44633730834755,0.19467905064331978
174.59505541346974,0.15870990979849087
174.74402730375425,0.06809926441799928
174.8932536293766,0.02627874365113596
175.04273504273505,0.023874058634977446
175.1924721984602,0.09435780013203231
175.34246575342465,0.264944497502625
175.49271636675235,0.42246574256942093
175.6432246998285,0.4289411310015473
175.79399141630904,0.2634202835115038
175.94501718213058,0.08404263631089239
176.0963026655202,0.1633058109146586
176.24784853700515,0.5343264553246226
176.3996554694229,0.8305755999856801
176.55172413793102,0.8206912373160316
176.70405522001724,0.7924375620007769
176.85664939550952,0.9210103088282338
177.00950734658602,1.361470907749306
177.16262975778545,2.6156581910293752
177.3160173160173,4.530181115972794
177.46967071057193,6.746045969229952
177.62359063313096,9.478715928335493
177.77777777777777,12.885510278283345
177.93223284100782,17.280630329766673
178.08695652173913,22.11032483794522
178.24194952132288,28.330688690310776
178.397212543554,39.63020483930786
178.55274629468178,57.01605556216894
178.70855148342056,79.15823492302961
178.86462882096066,100.52330426599542
179.02097902097898,107.1491830114342
179.17760279965006,105.54043042175671
179.33450087565674,113.3038529174437
179.4916739702016,126.26192457905195
179.64912280701753,136.82047409808973
179.80684811237927,133.55770028802425
179.96485061511424,96.53698585935595
180.12313104661388,57.852437799097665
180.28169014084506,40.075678638939806
180.44052863436124,26.143321088695544
180.59964726631395,7.22240773331698
180.75904677846424,3.6156213367276115
180.91872791519435,57.35087291294374
181.07869142351902,159.46142232513364
181.23893805309734,235.3122039400698
181.39946855624444,289.69675767211373
181.56028368794324,335.9273895507357
181.72138420585628,489.60962317430597
181.88277087033748,674.9743327832738
182.04444444444445,581.1783639668508
182.20640569395016,475.7960616113
182.3686553873553,187.42328494692003
182.53119429590015,239.76398384278392
182.69402319357712,246.08637469077792
182.85714285714286,41.75827744141458
183.0205540661305,89.52833162889058
183.18425760286226,312.5754080997115
183.34825425246197,302.27662565775023
183.51254480286738,497.7643105003148
183.67713004484304,724.1841975165545
183.84201077199282,1036.3286741098023
184.00718778077265,1075.6892932072672
184.1726618705036,1711.7342072485346
184.33843384338437,961.5648966470961
184.5045045045045,742.3007978938098
184.67087466185754,1187.8430833186007
184.83754512635377,206.4940821574224
185.0045167118338,1296.8435639265965
185.17179023508135,115.43136199323224
185.33936651583707,535.6518770352039
185.5072463768116,48.36534903783923
185.675430643699,347.44054609602296
185.84392014519057,107.09433856593039
186.01271571298818,56.59969752364395
186.1818181818182,77.0940063063087
186.3512283894449,205.4017266275818
186.52094717668484,71.19269551183315
186.69097538742025,65.49623594040888
186.86131386861314,83.5113422097808
187.03196347031962,177.1395017415536
187.20292504570384,231.81074558782606
187.37419945105214,170.75084605432545
187.54578754578753,11.167001035410701
187.71769019248396,93.82126688870557
187.88990825688072,107.29670166486373
188.06244260789717,52.24814308669306
188.23529411764707,158.2058219804292
188.40846366145354,246.67044960415754
188.5819521178637,329.5989441494194
188.75576036866357,265.6694376832851
188.92988929889296,166.44129129186177
189.10433979686056,33.90585346121843
189.27911275415894,40.38822307606973
189.45420906567992,140.75449644862596
189.62962962962962,127.14059811454004
189.80537534754404,136.92956287863248
189.98144712430428,138.50558156433914
190.15784586815226,69.88796160779165
190.3345724907063,53.756125339294634
190.51162790697674,53.999688374888336
190.68901303538178,67.41921913351969
190.8667287977633,105.4732729715192
191.044776119403,97.20596270830507
191.22315592903828,49.09347729361639
191.4018691588785,18.976445938214283
191.5809167446211,15.05331268539128
191.76029962546815,23.634137647494953
191.94001874414244,16.831015893735454
192.12007504690433,14.581329848648842
192.3004694835681,22.74302842892304
192.48120300751881,45.838695494098715
192.66227657572907,127.40993792439812
192.8436911487759,149.7880859136298
193.02544769085767,57.22260954246915
193.2075471698113,50.05866913724061
193.38999055712932,42.95177687557409
193.57277882797732,24.52100331340789
193.75591296121098,142.3729422865358
193.93939393939394,90.69990832625918
194.12322274881518,14.81934241790958
194.30740037950665,68.55061380273725
194.49192782526114,81.80558470601069
194.67680608365018,67.21306953976553
194.86203615604185,54.432433388148034
195.04761904761907,276.96714847940683
195.23355576739752,258.3523861388791
195.4198473282443,251.53599786816807
195.6064947468959,67.51279885206921
195.79349904397705,38.29299913547657
195.9808612440191,68.36854536651869
196.1685823754789,57.20268874466157
196.35666347075744,227.4251387489745
196.5451055662188,258.743783505278
196.73390970220942,186.39227296468792
196.92307692307693,145.60492615360056
197.1126082771896,93.51638830320647
197.30250481695566,147.12001590747346
197.4927675988428,117.88304450027894
197.68339768339766,180.47107652483305
197.8743961352657,174.65296775985433
198.06576402321085,117.29886833073658
198.25750242013552,16.92313702171401
198.44961240310076,78.4668060385963
198.64209505334625,106.009979049069
198.83495145631065,41.67015075290751
199.02818270165207,13.059013111111913
199.22178988326846,0.49366577762517083
199.4157740993184,13.712484470562453
199.61013645224173,124.59242332095153
199.8048780487805,225.0460661661878
200.0,138.7845494529365
200.19550342130987,82.60524629909521
200.3913894324853,3.18653561360893
200.58765915768853,81.3266434653386
200.78431372549022,145.7080322501621
200.9813542688911,284.88379409450124
201.17878192534383,456.1968685932767
201.37659783677483,506.8446651205641
201.5748031496063,499.45133526155706
201.77339901477833,157.05160592394304
201.9723865877712,32.2743441212985
202.1717670286278,27.64834434754512
202.3715415019763,122.78580723863803
202.57171117705244,105.28002534032355
202.77227722772278,75.44904548933548
202.97324083250743,8.450159561240575
203.17460317460316,37.646382256518606
203.37636544190661,21.683847548962895
203.57852882703776,7.964166973757307
203.78109452736314,32.92290241121663
203.98406374501994,6.437868746006276
204.1874376869392,131.8561126372591
204.39121756487026,88.39821553245213
204.5954045954046,50.022636022930705
204.79999999999998,80.0979915202686
205.005005005005,110.03718818389562
205.21042084168334,33.63756855134376
205.41624874623875,174.69829663784756
205.62248995983938,176.4463379642968
205.8291457286432,42.874679371942094
206.03621730382292,2.98015595143734
206.24370594159112,9.112857480437043
206.4516129032258,24.04022678228883
206.65993945509584,5.21877241916428
206.86868686868684,8.659875350711852
207.07785642062692,21.3049471459484
207.28744939271257,118.68874601825166
207.49746707193518,275.8488515368001
207.7079107505071,446.3313167271936
207.9187817258883,391.04270743722645
208.130081300813,87.8782020196252
