"Wavelength, nm",Intensity
136.44237175216523,7.880916275960751e-21
136.53333333333333,7.417961549729802e-20
136.62441627751835,8.519142719155176e-20
136.71562082777035,2.7166162422796526e-20
136.80694722778892,1.8429755845687593e-19
136.89839572192514,7.487899409298856e-20
136.98996655518394,9.06921349939734e-18
137.08165997322624,2.0258273801306177e-15
137.17347622237108,1.1286007059332897e-13
137.26541554959786,2.908999079161581e-12
137.35747820254863,4.24550181624991e-11
137.4496644295302,4.04235099604023e-10
137.54197447951645,2.7250327231821073e-09
137.63440860215053,1.362837473602043e-08
137.72696704774717,5.351225939102363e-08
137.81965006729476,1.7171868325698553e-07
137.9124579124579,4.5304439003276416e-07
138.0053908355795,9.959097298629122e-07
138.09844908968307,1.879791340668141e-06
138.19163292847506,3.1049740532856095e-06
138.28494260634707,4.599101135360038e-06
138.37837837837836,6.477018280373052e-06
138.47194050033806,9.227969110622803e-06
138.5656292286874,1.3658547601984191e-05
138.65944482058225,2.0631953542874583e-05
138.75338753387533,3.059717214668115e-05
138.84745762711862,4.405006304250187e-05
138.94165535956583,6.20556163129703e-05
139.03598099117448,8.599032493373771e-05
139.1304347826087,0.00011833423419932081
139.22501699524133,0.0001605990464437816
139.31972789115645,0.00020883862066195378
139.4145677331518,0.000256169344654768
139.50953678474113,0.0002938718805404805
139.60463531015677,0.00030856508036535604
139.69986357435198,0.0002904247620302111
139.79522184300342,0.00023301915554490985
139.89071038251367,0.0001358128527065349
139.98632946001365,4.033454460081509e-05
140.08207934336525,1.432495197254132e-05
140.17796030116358,9.742668209900983e-05
140.27397260273972,0.0002831481972661285
140.37011651816314,0.0004977869014719046
140.46639231824417,0.0007013648216934175
140.56280027453673,0.0010053166185965434
140.65934065934067,0.0015441828913553511
140.75601374570448,0.002432124477431299
140.85281980742778,0.003733572867596482
140.949759119064,0.005219826114934374
141.04683195592284,0.006520621073807853
141.14403859407307,0.007468534919299339
141.24137931034483,0.007994387566887669
141.33885438233264,0.008123636920865955
141.4364640883978,0.008108299410840356
141.53420870767104,0.008168202355417655
141.6320885200553,0.008306083671278438
141.73010380622836,0.008452641418873403
141.8282548476454,0.008468436742957474
141.92654192654192,0.008047981511584933
142.0249653259362,0.006950840233992336
142.1235253296322,0.005499083597207933
142.22222222222223,0.004289969253769353
142.32105628908963,0.0034848311895331646
142.42002781641168,0.002980751796023409
142.51913709116212,0.0028559351423922976
142.6183844011142,0.0031581190136047575
142.7177700348432,0.003641832542400457
142.81729428172943,0.004041927018088845
142.91695743196092,0.004423091099193473
143.0167597765363,0.005005422092727896
143.11670160726763,0.005798387209087822
143.21678321678323,0.0066473783455945675
143.31700489853043,0.007788882168617144
143.4173669467787,0.009956712737922058
143.5178696566223,0.013540080899778586
143.61851332398317,0.017988053328466223
143.71929824561403,0.02273726675299486
143.8202247191011,0.027933723519790343
143.92129304286718,0.03347702513560197
144.0225035161744,0.03914399702568078
144.12385643912737,0.04491287717552992
144.22535211267606,0.04929882577750528
144.32699083861874,0.05036297951758809
144.42877291960508,0.048964382755965465
144.530698659139,0.04711305706093705
144.6327683615819,0.04504965622932313
144.73498233215545,0.04236912454927963
144.83734087694484,0.03950050343570388
144.9398443029016,0.037101684927163515
145.04249291784703,0.03548799799177499
145.14528703047483,0.034705335619216286
145.24822695035462,0.034704993475619006
145.35131298793468,0.03595170728767893
145.45454545454544,0.03949571960112105
145.55792466240226,0.04610190339079087
145.66145092460883,0.05571923516676776
145.76512455516016,0.06723269804975752
145.86894586894587,0.07814198260571356
145.9729151817534,0.08555121768135668
146.07703281027102,0.0883129890034224
146.18129907209135,0.08731482301510568
146.28571428571428,0.08269107606105734
146.39027877055037,0.07337743295988751
146.49499284692416,0.06119192628516946
146.59985683607732,0.04954295641976453
146.7048710601719,0.040582518061106944
146.8100358422939,0.03587987799481858
146.91535150645623,0.03332377559571288
147.0208183776023,0.03136224787395069
147.1264367816092,0.03179702070353469
147.23220704529115,0.034221591336490956
147.33812949640287,0.03709182401423436
147.4442044636429,0.03294467610742915
147.55043227665706,0.02771731436689022
147.6568132660418,0.03953064098174392
147.76334776334778,0.0363305552341133
147.87003610108303,0.013892207760028499
147.97687861271675,0.04801975681402511
148.08387563268258,0.07886431006319225
148.19102749638205,0.026669796892526246
148.29833454018825,0.022610586730498143
148.40579710144928,0.07249867443481071
148.51341551849166,0.043248003513883734
148.6211901306241,0.01118388253467543
148.72912127814087,0.042362983296805816
148.8372093023256,0.02698699721626914
148.94545454545454,0.001936673224510035
149.0538573508006,0.0487023276726784
149.16241806263656,0.050173837096716266
149.27113702623907,0.0018043216167560132
149.38001458789202,0.05989596213458987
149.4890510948905,0.1314970144651264
149.59824689554418,0.058578279687381475
149.70760233918128,0.0024559080614697504
149.81711777615214,0.10850857266073234
149.9267935578331,0.16727633082822543
150.03663003663004,0.05347235182673876
150.1466275659824,0.004557354015780909
150.25678650036684,0.08274993714944012
150.36710719530103,0.11061054805645065
150.47759000734754,0.04389708210140842
150.58823529411762,0.0026052201619725154
150.69904341427517,0.03869442608706174
150.8100147275405,0.055040205824231116
150.92114959469419,0.025559319545068297
151.03244837758112,0.004789966278707057
151.1439114391144,0.0006501326545866812
151.25553914327915,0.003437881718123804
151.3673318551367,0.01777012081355048
151.47928994082838,0.023933549106942988
151.59141376757958,0.019918226144206966
151.7037037037037,0.023000396991670273
151.81616011860638,0.011785808930954975
151.92878338278933,0.01664995971624845
152.04157386785448,0.05501458112298573
152.15453194650817,0.058308165608047934
152.26765799256503,0.021028337760803217
152.38095238095235,0.02265544437424661
152.4944154877141,0.10128578505928171
152.6080476900149,0.1487663651220317
152.72184936614468,0.09720879321028099
152.8358208955224,0.04285679242584887
152.9499626587005,0.06571491634038548
153.0642750373692,0.0906026447431084
153.1787584143605,0.07372046322464239
153.29341317365268,0.05979974029612095
153.40823970037454,0.05188338181218063
153.5232383808096,0.03065636219501798
153.6384096024006,0.0048121831736991725
153.75375375375376,0.014472525391356563
153.86927122464311,0.08772730590542853
153.98496240601503,0.15861772935061277
154.10082768999246,0.13511042656436026
154.2168674698795,0.04349662626498422
154.33308214016577,0.01877056790807147
154.4494720965309,0.12857299623166038
154.56603773584905,0.21101410091612136
154.68277945619334,0.09905266113231542
154.79969765684052,0.01250590391834587
154.91679273827532,0.19584133773255452
155.0340651021953,0.41082288608759315
155.15151515151516,0.3541399789537014
155.2691432903715,0.12249818968648553
155.38694992412746,0.005383716542942603
155.50493545937738,0.06750021349586423
155.62310030395136,0.14163888118763154
155.74144486692012,0.13493900643775156
155.8599695585997,0.09094346148798083
155.97867479055597,0.038168877606925035
156.09756097560975,0.0032548546740610246
156.21662852784135,0.024215305927000986
156.33587786259542,0.05411615979552424
156.45530939648586,0.04170953620380959
156.5749235474006,0.01864795155484025
156.69472073450652,0.008438914854844496
156.8147013782542,0.008173962343953645
156.93486590038313,0.01878255225178536
157.05521472392638,0.02558522372289231
157.17574827321565,0.02188028077733994
157.29646697388634,0.036859929789809454
157.4173712528824,0.11772186240514161
157.53846153846155,0.16390332632735985
157.65973826020013,0.06903932530999791
157.78120184899845,0.04767580731825334
157.9028527370856,0.3115855186954181
158.02469135802468,0.5214521710818839
158.14671814671814,0.270909837610086
158.26893353941267,0.011153227212437675
158.39133797370457,0.2887993266696495
158.5139318885449,0.5642009760653027
158.63671572424477,0.30760110746541947
158.7596899224806,0.02548729697289536
158.88285492629947,0.15751405583022882
159.0062111801242,0.3474633236500277
159.12975912975912,0.24262799525359618
159.25349922239502,0.10032283965039676
159.37743190661476,0.13337855199179674
159.50155763239874,0.14916886059498982
159.62587685113016,0.11061367474597406
159.7503900156006,0.15112013534114158
159.87509758001562,0.199992361110563
160.0,0.1297430035037032
160.12509773260362,0.024951721175658345
160.2503912363067,0.058684700689379775
160.37588097102582,0.1989415555520122
160.5015673981191,0.24322511389757517
160.62745098039213,0.11953963854245081
160.7535321821036,0.004676132418043686
160.87981146897093,0.046896695593178474
161.0062893081761,0.13186757755664008
161.13296616837135,0.11458559140126214
161.25984251968504,0.034878542477175534
161.38691883372735,0.014823305462072733
161.51419558359618,0.07661950415574241
161.64167324388316,0.11341087865112197
161.7693522906793,0.06263636317385383
161.89723320158103,0.011954317613255709
162.0253164556962,0.03384003622839666
162.15360253365006,0.07150677004438125
162.28209191759112,0.06779216533610762
162.41078509119745,0.040910306159944586
162.53968253968253,0.019214233313457937
162.66878474980143,0.005243773621948139
162.79809220985692,0.004518980339705959
162.92760540970565,0.017743282892934302
163.05732484076432,0.02116924933897387
163.18725099601593,0.03418007396623626
163.31738437001593,0.0898313335659172
163.44772545889865,0.14558856348095375
163.57827476038338,0.10772972844783714
163.709032773781,0.01925719992888698
163.84,0.07454981911944442
163.97117694155327,0.24472452031635217
164.1025641025641,0.2570367982770698
164.23416198877305,0.09962083857887556
164.3659711075441,0.01135683002356595
164.49799196787149,0.03316809807608071
164.63022508038586,0.08396737235349437
164.76267095736122,0.12608017603771798
164.89533011272144,0.13183555708946706
165.02820306204674,0.08948752510567479
165.16129032258064,0.032287628976457206
165.29459241323647,0.03166589611515283
165.4281098546042,0.08751441936879581
165.56184316895713,0.10768836817408821
165.6957928802589,0.06593472266286735
165.82995951417004,0.031166420287142425
165.9643435980551,0.04180223169635047
166.09894566098947,0.05106869343653987
166.23376623376623,0.02910391471954434
166.36880584890332,0.06421607250993387
166.5040650406504,0.1802077371909971
166.63954434499593,0.20423533898870003
166.77524429967426,0.07871431704805117
166.9111654441728,0.0062688914381561316
167.047308319739,0.06146240915746649
167.18367346938777,0.07111680960171166
167.3202614379085,0.0330402113897149
167.45707277187245,0.04286329165238959
167.59410801963992,0.05080388156446352
167.7313677313677,0.03296397711307394
167.86885245901638,0.03730090210381219
168.00656275635768,0.0551136645941147
168.14449917898193,0.03692419097174759
168.28266228430567,0.016537973789941974
168.42105263157896,0.0489502450399187
168.559670781893,0.07117831055768685
168.6985172981878,0.042134587262611656
168.83759274525966,0.024514061236406162
168.97689768976898,0.029442104064319862
169.11643270024774,0.026749147165845893
169.25619834710741,0.022300190938125436
169.39619520264682,0.017116064491909534
169.53642384105962,0.011713896180580672
169.67688483844242,0.05530937878946444
169.81757877280262,0.1063137822450053
169.95850622406635,0.07679390249207765
170.09966777408638,0.01988975677828074
170.24106400665005,0.0005552277238500065
170.3826955074875,0.021389261450556855
170.52456286427974,0.07697916187053828
170.66666666666666,0.0955230663283433
170.8090075062552,0.03364016993466792
170.9515859766277,0.05609892644698838
171.09440267335003,0.19032555464806997
171.23745819397996,0.19830755065875705
171.3807531380753,0.08978305845630076
171.52428810720266,0.06565729856800907
171.66806370494552,0.0978378589081638
171.81208053691276,0.08700132473279279
171.95633921074725,0.058912208191875724
172.10084033613444,0.05297346100202091
172.24558452481077,0.13757294552592123
172.3905723905724,0.3373061857738074
172.5358045492839,0.44874183364531445
172.681281618887,0.32096254628770304
172.82700421940928,0.11115276500643931
172.97297297297297,0.03676958005550232
173.11918850380385,0.12507234373921378
173.26565143824024,0.24210748639801485
173.41236240474177,0.3098508103149476
173.55932203389833,0.33736074665542903
173.70653095843934,0.2964544460668804
173.85398981324278,0.16326094253716658
174.0016992353441,0.03866472623296554
174.14965986394557,0.008677386465227975
174.2978723404255,0.020680000855346527
174.44633730834755,0.03406871243197613
174.59505541346974,0.047180783160813575
174.74402730375425,0.071733224658353
174.8932536293766,0.14784106938155314
175.04273504273505,0.17901761568676525
175.1924721984602,0.06652013489084829
175.34246575342465,0.01643191250255969
175.49271636675235,0.19903210198832633
175.6432246998285,0.4441661003919868
175.79399141630904,0.6158941624932165
175.94501718213058,0.5704287942569934
176.0963026655202,0.3369183711282456
176.24784853700515,0.599048554100834
176.3996554694229,1.164425452059382
176.55172413793102,1.1404072423184939
176.70405522001724,1.3709291413729527
176.85664939550952,2.116568082915477
177.00950734658602,2.158622147255697
177.16262975778545,2.3532002033349118
177.3160173160173,3.7419110917940834
177.46967071057193,7.249209497772027
177.62359063313096,13.463052220524624
177.77777777777777,16.691565358978277
177.93223284100782,18.133862619892895
178.08695652173913,27.140674424136098
178.24194952132288,35.26925279227215
178.397212543554,43.18548208954019
178.55274629468178,65.84162601213472
178.70855148342056,78.82673793052375
178.86462882096066,78.67487512141311
179.02097902097898,99.78244156977219
179.17760279965006,109.10769667119406
179.33450087565674,107.69289931803164
179.4916739702016,143.06026967817917
179.64912280701753,141.55697897614937
179.80684811237927,96.03977865709155
179.96485061511424,99.80275923099762
180.12313104661388,77.56654453087042
180.28169014084506,34.300485013225305
180.44052863436124,36.76617478675912
180.59964726631395,8.54677554886781
180.75904677846424,18.640893865494824
180.91872791519435,57.687716969108216
181.07869142351902,72.68994793236693
181.23893805309734,230.8034258377871
181.39946855624444,270.533343220145
181.56028368794324,245.7579784378454
181.72138420585628,531.2222534378855
181.88277087033748,446.67402261698527
182.04444444444445,87.06133793686139
182.20640569395016,68.13460936477158
182.3686553873553,150.1554807309102
182.53119429590015,291.32822063673865
182.69402319357712,169.00169243309387
182.85714285714286,59.185374093645855
183.0205540661305,66.82517404395402
183.18425760286226,110.64187567975216
183.34825425246197,676.6647177765267
183.51254480286738,1000.3636379834536
183.67713004484304,330.9017423121401
183.84201077199282,814.9990251586105
184.00718778077265,167.93472995104938
184.1726618705036,2401.327806829248
184.33843384338437,3962.5140503729517
184.5045045045045,1769.1223257961956
184.67087466185754,2214.1481969409124
184.83754512635377,1653.7729339761395
185.0045167118338,1881.3142409033378
185.17179023508135,3407.280125776595
185.33936651583707,2251.078603008515
185.5072463768116,823.852193572625
185.675430643699,211.72588888896522
185.84392014519057,18.831860376875003
186.01271571298818,16.21793880077158
186.1818181818182,101.94978790403424
186.3512283894449,116.90253849667698
186.52094717668484,1214.569359903923
186.69097538742025,938.802512543603
186.86131386861314,112.35474180603129
187.03196347031962,663.2292508612533
187.20292504570384,881.7958259383585
187.37419945105214,274.0221695598257
187.54578754578753,236.2197607853957
187.71769019248396,279.26911492425324
187.88990825688072,27.769808288187935
188.06244260789717,154.53187996257208
188.23529411764707,173.37326188347322
188.40846366145354,390.7959996341977
188.5819521178637,322.5102898054837
188.75576036866357,132.75827534489667
188.92988929889296,341.5137639645636
189.10433979686056,291.68801232272614
189.27911275415894,271.05792300333684
189.45420906567992,582.6751270774395
189.62962962962962,591.7142941571029
189.80537534754404,359.73563367559825
189.98144712430428,301.2953361259762
190.15784586815226,188.99155237314474
190.3345724907063,188.28955809342332
190.51162790697674,362.463694300369
190.68901303538178,371.0795768910006
190.8667287977633,326.61412546761426
191.044776119403,286.8579647284983
191.22315592903828,153.93057098681186
191.4018691588785,96.67750584117988
191.5809167446211,128.092070707491
191.76029962546815,115.31398590897497
191.94001874414244,125.46461988974713
192.12007504690433,110.89560202227383
192.3004694835681,22.738391653063495
192.48120300751881,29.672884222216712
192.66227657572907,45.777204288856666
192.8436911487759,31.428150187123446
193.02544769085767,61.54226822050942
193.2075471698113,71.47750886404222
193.38999055712932,36.12750913085682
193.57277882797732,46.00247312095553
193.75591296121098,12.90384249459955
193.93939393939394,16.46365939485986
194.12322274881518,29.233875735107862
194.30740037950665,9.608537158213823
194.49192782526114,17.01896658485738
194.67680608365018,9.719224712152002
194.86203615604185,47.9657456736873
195.04761904761907,184.2644409544154
195.23355576739752,179.1043411637082
195.4198473282443,15.676687932300112
195.6064947468959,90.21187475758738
195.79349904397705,172.81814052909994
195.9808612440191,31.68969222709196
196.1685823754789,12.174989940617126
196.35666347075744,16.765223550218586
196.5451055662188,155.98803873673074
196.73390970220942,26.35182210978103
196.92307692307693,200.7993750871882
197.1126082771896,508.360404794927
197.30250481695566,682.8796475192386
197.4927675988428,518.8385424947528
197.68339768339766,100.65682021843605
197.8743961352657,254.67828852045693
198.06576402321085,189.35629459784548
198.25750242013552,66.49199676511695
198.44961240310076,79.63334767216038
198.64209505334625,294.1500833237523
198.83495145631065,379.9352377594055
199.02818270165207,109.68280516294317
199.22178988326846,71.96530876148734
199.4157740993184,244.21726405319768
199.61013645224173,378.9992913966765
199.8048780487805,70.82910899071302
200.0,14.701614479268146
200.19550342130987,39.62657585602954
200.3913894324853,43.69114332565099
200.58765915768853,90.02491372006341
200.78431372549022,135.8650570621674
200.9813542688911,23.025995376100827
201.17878192534383,450.87149545507367
201.37659783677483,700.2620525475237
201.5748031496063,223.8488066236937
201.77339901477833,105.21968402941015
201.9723865877712,258.3858614855494
202.1717670286278,467.8050184978095
202.3715415019763,199.789489756792
202.57171117705244,16.125152745198765
202.77227722772278,1.4826432403062213
202.97324083250743,4.579537903216415
203.17460317460316,20.543694948697144
203.37636544190661,31.994565480199416
203.57852882703776,32.73609509679386
203.78109452736314,9.338017163166732
203.98406374501994,7.9834270109768735
204.1874376869392,28.195651546574027
204.39121756487026,158.94746784238737
204.5954045954046,367.16830115827406
204.79999999999998,296.7837513451243
205.005005005005,80.29435540484963
205.21042084168334,90.9378525288293
205.41624874623875,285.1433797611818
205.62248995983938,315.2447843234431
205.8291457286432,133.2323583606139
206.03621730382292,105.6630263248687
206.24370594159112,296.474621079371
206.4516129032258,336.5619370133384
206.65993945509584,43.157055644080685
206.86868686868684,55.60423337130778
207.07785642062692,60.735701537066404
207.28744939271257,61.543836445455234
207.49746707193518,155.56783486481626
207.7079107505071,176.11231736571398
207.9187817258883,53.730122496249116
208.130081300813,20.35617773412836
208.34181078331636,2.7597750267869934
